cam_time,cam_waveform,cam_bpm
18.799887,33780.0,0.0
19.608841,190170.5,0.0
19.707839,195908.5,0.0
19.847831,202638.0,0.0
19.882829,202638.0,0.0
19.988819,205929.5,0.0
20.038819,205929.5,0.0
20.14781,206642.5,0.0
20.198804,206642.5,0.0
20.2858,209532.5,0.0
20.320798,209532.5,0.0
20.428805,213268.5,0.0
20.46479,213268.5,0.0
20.594782,216940.0,0.0
20.637778,216940.0,0.0
20.740774,222359.5,0.0
20.783781,222359.5,0.0
20.891763,224379.5,0.0
20.928762,224379.5,0.0
21.043756,225612.0,0.0
21.084752,225612.0,0.0
21.186747,232036.5,0.0
21.230745,232036.5,0.0
21.346738,231429.0,0.0
21.394738,231429.0,0.0
21.491737,251963.5,0.0
21.543724,251963.5,0.0
21.62872,265046.5,0.0
21.663728,265046.5,0.0
21.795712,273908.5,0.0
21.844707,273908.5,0.0
21.932701,271307.5,0.0
21.9637,271307.5,0.0
22.098693,273033.5,0.0
22.139695,273033.5,0.0
22.244685,279679.0,0.0
22.295687,279679.0,0.0
22.382676,285558.0,0.0
22.424678,285558.0,0.0
22.549667,291482.5,0.0
22.589663,291482.5,0.0
22.695658,299055.0,0.0
22.731654,299055.0,0.0
22.849648,318747.0,0.0
22.895648,318747.0,0.0
22.996646,345758.0,0.0
23.046638,345758.0,0.0
23.139633,372763.0,0.0
23.179628,372763.0,0.0
23.293622,395524.0,0.0
23.323622,395524.0,0.0
23.50961,412030.0,0.0
23.553608,412030.0,0.0
23.620602,420075.5,0.0
23.6656,420075.5,0.0
23.748595,424507.0,0.0
23.798592,424507.0,0.0
23.897586,434171.0,0.0
23.944583,434171.0,0.0
24.055601,441987.5,0.0
24.088575,441987.5,0.0
24.209626,446739.5,0.0
24.261566,446739.5,0.0
24.35956,454650.0,0.0
24.403557,454650.0,0.0
24.512551,456888.5,0.0
24.559549,456888.5,0.0
24.647542,452503.5,0.0
24.708538,452503.5,0.0
24.813533,448292.0,0.0
24.857534,448292.0,0.0
24.951523,456162.0,0.0
25.001522,456162.0,0.0
25.108514,470022.0,0.0
25.146513,470022.0,0.0
25.263508,487014.0,0.0
25.315506,487014.0,0.0
25.405499,503770.0,0.0
25.451496,503770.0,0.0
25.560512,513517.5,0.0
25.606486,513517.5,0.0
25.697479,525237.0,0.0
25.740509,525237.0,0.0
25.92347,541949.0,0.0
25.978463,541949.0,0.0
26.019461,556600.5,0.0
26.146464,555091.0,0.0
26.190451,555091.0,0.0
26.301447,545972.5,0.0
26.332443,545972.5,0.0
26.453436,538487.5,0.0
26.562431,538487.5,0.0
26.611439,533648.0,0.0
26.648427,533648.0,0.0
26.752419,533276.0,0.0
26.796417,533276.0,0.0
26.914411,523112.5,0.0
26.948407,523112.5,0.0
27.0584,505323.5,0.0
27.105399,505323.5,0.0
27.200391,482188.5,0.0
27.24039,482188.5,0.0
27.360385,465976.0,0.0
27.410378,465976.0,0.0
27.503373,472054.5,0.0
27.541373,472054.5,0.0
27.65539,499113.5,0.0
27.694363,499113.5,0.0
27.808357,515053.0,0.0
27.839357,515053.0,0.0
27.961348,530799.0,0.0
27.999343,530799.0,0.0
28.124339,556244.0,0.0
28.156337,556244.0,0.0
28.268335,581333.5,0.0
28.301326,581333.5,0.0
28.418321,606159.0,0.0
28.468316,606159.0,0.0
28.561311,632181.5,0.0
28.60331,632181.5,0.0
28.707303,656942.0,0.0
28.7483,656942.0,0.0
28.876351,669469.0,0.0
28.914291,669469.0,0.0
29.022286,703662.5,0.0
29.055282,703662.5,0.0
29.165278,747585.5,0.0
29.206274,747585.5,0.0
29.315269,725974.5,0.0
29.350265,725974.5,0.0
29.458258,544658.5,0.0
29.486257,544658.5,0.0
29.63125,349580.0,0.0
29.657267,349580.0,0.0
29.764243,319974.0,0.0
29.807238,319974.0,0.0
29.901266,362083.0,0.0
29.931231,362083.0,0.0
30.070225,396909.0,0.0
30.10822,396909.0,0.0
30.206214,414006.5,0.0
30.241213,414006.5,0.0
30.370211,429937.0,0.0
30.417204,429937.0,0.0
30.512198,435845.0,0.0
30.546194,435845.0,0.0
30.657188,421745.5,0.0
30.698189,421745.5,0.0
30.82318,388041.0,0.0
30.859175,388041.0,0.0
30.987168,359637.5,0.0
31.037166,359637.5,0.0
31.130159,335236.5,0.0
31.165158,335236.5,0.0
31.27521,326146.5,0.0
31.303193,326146.5,0.0
31.425149,326088.0,0.0
31.45614,326088.0,0.0
31.577135,327904.5,0.0
31.612131,327904.5,0.0
31.719186,327051.5,0.0
31.749125,327051.5,0.0
31.866117,339574.5,0.0
31.901114,339574.5,0.0
32.029109,358455.5,0.0
32.057105,358455.5,0.0
32.1741,374866.0,0.0
32.206096,374866.0,0.0
32.331089,386486.0,0.0
32.366088,386486.0,0.0
32.477141,391912.0,0.0
32.511078,391912.0,0.0
32.611075,394430.5,0.0
32.645073,394430.5,0.0
32.779122,394647.0,0.0
32.812061,394647.0,85.71428571428571
32.915057,395781.0,85.71428571428571
32.951059,395781.0,0.0
33.080091,394752.5,0.0
33.114042,394752.5,0.0
33.230036,386656.0,0.0
33.262034,386656.0,0.0
33.374029,379701.5,0.0
33.408056,379701.5,0.0
33.52802,371808.0,0.0
33.557017,371808.0,0.0
33.676017,366030.0,0.0
33.718007,366030.0,0.0
33.834,361144.0,0.0
33.873999,361144.0,0.0
33.967993,358784.0,0.0
34.000991,358784.0,0.0
34.112984,358157.0,0.0
34.148984,358157.0,0.0
34.282974,362415.5,0.0
34.319021,362415.5,0.0
34.429966,368797.0,0.0
34.468964,368797.0,0.0
34.591958,374840.0,0.0
34.641953,374840.0,0.0
34.719947,379380.5,0.0
34.744947,379380.5,0.0
34.873941,381457.0,0.0
34.910937,381457.0,0.0
35.02593,385327.0,0.0
35.062929,385327.0,0.0
35.169973,387053.0,0.0
35.20092,387053.0,0.0
35.33296,390523.0,0.0
35.36291,390523.0,0.0
35.481941,392072.5,0.0
35.518901,392072.5,0.0
35.629894,389141.5,0.0
35.672892,389141.5,0.0
35.776886,385621.5,0.0
35.804884,385621.5,0.0
35.933882,383744.0,0.0
35.972874,383744.0,0.0
36.091869,383828.0,0.0
36.127865,383828.0,0.0
36.236861,383048.0,0.0
36.273856,383048.0,0.0
36.37985,382112.0,0.0
36.409851,382112.0,0.0
36.538842,382707.5,0.0
36.580841,382707.5,0.0
36.683891,382999.5,0.0
36.72183,382999.5,0.0
36.844829,382714.5,0.0
36.878852,382714.5,0.0
36.988822,381488.5,100.0
37.039815,381488.5,100.0
37.128806,379863.5,0.0
37.161804,379863.5,100.0
37.292798,381084.0,0.0
37.327794,381084.0,0.0
37.427793,381936.0,0.0
37.454787,381936.0,0.0
37.592808,384572.0,0.0
37.621828,384572.0,0.0
37.735772,380927.5,0.0
37.771798,380927.5,0.0
37.881763,362900.5,0.0
37.921763,362900.5,0.0
38.043758,336779.0,0.0
38.07679,336779.0,0.0
38.178747,316264.5,0.0
38.223742,316264.5,0.0
38.337738,308028.0,0.0
38.38178,308028.0,0.0
38.475727,303230.5,0.0
38.510725,303230.5,0.0
38.621718,301793.0,0.0
38.65872,301793.0,0.0
38.785715,303971.5,0.0
38.825706,303971.5,0.0
38.931702,305004.0,0.0
38.9737,305004.0,0.0
39.090698,306954.5,0.0
39.130689,306954.5,0.0
39.235683,308123.5,0.0
39.275682,308123.5,0.0
39.378676,308534.5,0.0
39.417672,308534.5,0.0
39.538666,306089.5,0.0
39.577668,306089.5,0.0
39.682658,307066.5,0.0
39.727653,307066.5,0.0
39.843647,304839.5,0.0
39.882643,304839.5,0.0
39.987697,298416.0,0.0
40.051637,298416.0,0.0
40.127632,296053.0,0.0
40.158628,296053.0,0.0
40.302679,295675.5,0.0
40.350617,295675.5,0.0
40.433611,297962.5,0.0
40.46661,297962.5,0.0
40.607603,310510.5,0.0
40.6526,310510.5,0.0
40.737594,306380.5,0.0
40.773591,306380.5,0.0
40.896642,302624.5,0.0
40.944582,302624.5,0.0
41.054581,316403.0,0.0
41.091572,316403.0,0.0
41.201594,320615.0,0.0
41.243564,320615.0,0.0
41.359557,250878.5,0.0
41.398554,250878.5,0.0
41.48655,134935.5,0.0
41.521549,134935.5,0.0
41.634543,75624.5,0.0
41.674561,75624.5,0.0
41.794538,56405.0,0.0
41.840532,56405.0,0.0
41.940528,46678.5,0.0
41.978521,46678.5,0.0
42.099575,26882.5,0.0
42.133512,26882.5,0.0
42.242511,22574.5,0.0
42.279506,22574.5,0.0
42.386497,19932.5,0.0
42.428493,19932.5,0.0
42.546489,19415.0,0.0
42.592486,19415.0,0.0
42.690493,61617.5,0.0
42.726479,61617.5,0.0
42.835472,239408.5,0.0
42.876467,239408.5,0.0
42.995462,399441.5,0.0
43.032459,399441.5,0.0
43.139455,429510.5,0.0
43.186453,429510.5,0.0
43.310488,398879.0,0.0
43.348439,398879.0,0.0
43.442464,331595.5,0.0
43.478432,331595.5,0.0
43.601426,303398.5,0.0
43.643421,303398.5,0.0
43.758441,316437.0,0.0
43.799413,316437.0,0.0
43.89041,330992.5,0.0
43.927408,330992.5,0.0
44.061445,349486.5,0.0
44.100395,349486.5,0.0
44.194391,339686.0,0.0
44.232387,339686.0,0.0
44.351387,300967.5,0.0
44.393378,300967.5,0.0
44.509378,250609.0,0.0
44.545369,250609.0,0.0
44.642364,204304.0,0.0
44.674362,204304.0,0.0
44.813357,169173.0,0.0
44.853352,169173.0,0.0
44.945345,141092.5,0.0
44.980343,141092.5,0.0
45.102338,139463.5,0.0
45.145336,139463.5,0.0
45.259334,148518.0,0.0
45.299325,148518.0,0.0
45.40632,149467.0,0.0
45.445319,149467.0,0.0
45.56431,143942.0,0.0
45.610306,143942.0,0.0
45.708307,134484.5,0.0
45.744299,134484.5,0.0
45.840295,137488.0,0.0
45.87229,137488.0,0.0
46.012344,142507.0,0.0
46.058279,142507.0,0.0
46.155281,146655.5,0.0
46.191272,146655.5,0.0
46.311267,165231.5,0.0
46.350263,165231.5,0.0
46.450257,171647.0,0.0
46.483257,171647.0,0.0
46.595248,187971.0,0.0
46.620246,187971.0,0.0
46.762238,200652.0,0.0
46.793285,200652.0,0.0
46.91223,175782.0,0.0
46.94723,175782.0,0.0
47.066221,138638.0,0.0
47.107221,138638.0,0.0
47.209218,112910.0,0.0
47.247213,112910.0,0.0
47.35921,328525.5,0.0
47.403201,328525.5,0.0
47.520196,474190.5,0.0
47.567192,474190.5,0.0
47.662188,539869.5,0.0
47.700214,539869.5,0.0
47.825178,411005.5,0.0
47.869173,411005.5,0.0
47.965167,454329.5,0.0
48.008165,454329.5,0.0
48.112159,303187.5,0.0
48.149157,303187.5,0.0
48.26715,306194.0,0.0
48.305149,306194.0,0.0
48.413141,320545.0,0.0
48.44414,320545.0,0.0
48.527137,211642.0,0.0
48.553132,211642.0,0.0
48.668186,224429.5,0.0
48.700124,224429.5,0.0
48.79212,210216.5,0.0
48.824117,210216.5,0.0
48.92211,195740.0,0.0
48.952109,195740.0,0.0
49.009106,169054.5,0.0
49.039104,169054.5,0.0
49.1291,156123.5,0.0
49.161097,156123.5,0.0
49.240094,155127.5,0.0
49.272093,155127.5,0.0
49.353087,152921.5,0.0
49.388083,152921.5,0.0
49.454079,152487.5,0.0
49.479108,152487.5,0.0
49.577074,152890.5,0.0
49.61307,152890.5,0.0
49.688067,161883.5,0.0
49.723063,161883.5,0.0
49.792103,162449.0,0.0
49.822061,162449.0,0.0
49.916052,163453.0,0.0
49.94505,163453.0,0.0
49.999049,164050.0,0.0
50.026045,164050.0,0.0
50.12204,163944.0,0.0
50.160038,163944.0,0.0
50.23304,163442.0,0.0
50.264032,163442.0,0.0
50.349029,162298.0,0.0
50.382025,162298.0,0.0
50.448021,161122.0,0.0
50.478019,161122.0,0.0
50.573061,160475.5,0.0
50.604014,160475.5,0.0
50.682007,160387.5,0.0
50.716008,160387.5,0.0
50.782034,160432.0,0.0
50.807999,160432.0,0.0
50.905993,161407.5,0.0
50.934992,161407.5,0.0
50.990989,160868.5,0.0
51.018986,160868.5,0.0
51.117983,161114.5,0.0
51.154979,161114.5,0.0
51.226975,161568.0,0.0
51.254973,161568.0,0.0
51.33397,162284.0,0.0
51.371968,162284.0,0.0
51.441962,161972.0,0.0
51.473962,161972.0,0.0
51.555957,161955.5,0.0
51.602953,161955.5,0.0
51.665949,162187.0,0.0
51.695947,162187.0,54.54545454545455
51.776943,161906.0,0.0
51.813943,161906.0,0.0
51.889935,162076.5,0.0
51.923936,162076.5,0.0
51.98693,161851.0,0.0
52.02093,161851.0,0.0
52.095924,162124.5,0.0
52.128922,162124.5,0.0
52.20992,162324.0,0.0
52.243918,162324.0,0.0
52.32091,163868.0,0.0
52.359908,163868.0,0.0
52.432907,164112.0,0.0
52.464902,164112.0,0.0
52.556899,164788.0,0.0
52.605894,164788.0,0.0
52.657893,165830.5,0.0
52.693889,165830.5,0.0
52.768884,165650.5,0.0
52.800882,165650.5,0.0
52.889877,165824.0,0.0
52.930875,165824.0,0.0
53.00387,166980.5,0.0
53.044869,166980.5,60.0
53.092866,167771.5,0.0
53.148862,167771.5,0.0
53.201859,168410.5,75.0
53.237857,168410.5,75.0
53.310852,185762.5,75.0
53.344857,185762.5,85.71428571428571
53.407848,178781.0,85.71428571428571
53.441847,178781.0,85.71428571428571
53.519842,182817.5,85.71428571428571
53.55084,182817.5,100.0
53.617835,182565.0,100.0
53.651832,182565.0,100.0
53.717828,183006.5,100.0
53.751827,183006.5,0.0
53.808824,176116.5,0.0
53.841822,176116.5,0.0
53.933818,176470.5,0.0
53.971812,176470.5,0.0
54.020817,176513.0,0.0
54.055808,176513.0,0.0
54.113805,169235.0,0.0
54.148809,169235.0,0.0
54.2358,169219.0,0.0
54.279828,169219.0,0.0
54.322792,169416.5,0.0
54.357791,169416.5,0.0
54.417789,169884.0,0.0
54.451785,169884.0,0.0
54.511783,169906.0,0.0
54.541782,169906.0,0.0
54.623775,170768.0,0.0
54.656776,170768.0,0.0
54.721769,171378.0,0.0
54.752767,171378.0,0.0
54.816763,171275.5,0.0
54.855766,171275.5,0.0
54.918758,171593.5,0.0
54.949756,171593.5,0.0
55.034752,171518.5,0.0
55.072748,171518.5,0.0
55.121746,171393.5,0.0
55.156743,171393.5,0.0
55.216739,172660.5,0.0
55.253741,172660.5,0.0
55.312735,172360.5,0.0
55.344733,172360.5,0.0
55.432729,174140.5,0.0
55.465726,174140.5,0.0
55.519723,174627.0,0.0
55.549721,174627.0,0.0
55.615716,174284.5,0.0
55.646714,174284.5,0.0
55.72771,174235.0,0.0
55.760758,174235.0,85.71428571428571
55.826703,173853.0,0.0
55.866702,173853.0,0.0
55.925698,174265.5,0.0
55.959695,174265.5,0.0
56.018694,173494.0,0.0
56.051691,173494.0,85.71428571428571
56.127686,174111.5,100.0
56.163684,174111.5,100.0
56.227711,173911.0,0.0
56.256678,173911.0,109.0909090909091
56.332676,166200.0,100.0
56.38467,166200.0,0.0
56.430669,166339.5,0.0
56.537663,166144.0,0.0
56.573663,166144.0,0.0
56.626656,165140.5,0.0
56.664654,165140.5,0.0
56.722651,165201.5,0.0
56.758648,165201.5,100.0
56.815645,165094.5,100.0
56.852645,165094.5,100.0
56.927638,165078.0,100.0
56.967669,165078.0,100.0
57.024634,165026.0,100.0
57.059631,165026.0,100.0
57.120627,164168.0,100.0
57.153626,164168.0,0.0
57.217625,163833.5,0.0
57.249672,163833.5,0.0
57.327615,163674.0,0.0
57.363613,163674.0,0.0
57.424609,162073.5,0.0
57.458608,162073.5,0.0
57.519604,160949.5,0.0
57.555602,160949.5,0.0
57.632597,159516.0,0.0
57.661595,159516.0,0.0
57.723595,157889.5,0.0
57.757592,157889.5,0.0
57.825587,156182.5,0.0
57.858584,156182.5,0.0
57.91661,154222.5,0.0
57.947647,154222.5,0.0
58.034575,153215.0,0.0
58.077571,153215.0,0.0
58.125568,152985.5,0.0
58.158567,152985.5,0.0
58.219565,151865.5,0.0
58.246564,151865.5,0.0
58.316587,150358.0,0.0
58.3496,150358.0,0.0
58.43255,150292.5,0.0
58.464548,150292.5,0.0
58.523544,153181.5,0.0
58.557543,153181.5,0.0
58.625539,156923.0,0.0
58.661538,156923.0,0.0
58.721535,165323.0,0.0
58.753531,165323.0,0.0
58.832527,174937.5,0.0
58.867525,174937.5,0.0
58.929523,178116.0,0.0
58.965519,178116.0,0.0
59.022515,186085.0,0.0
59.053516,186085.0,72.72727272727273
59.150508,206154.0,0.0
59.192506,206154.0,0.0
59.233503,198674.0,0.0
59.313499,190022.5,0.0
59.348497,190022.5,0.0
59.391495,189367.0,0.0
59.4185,189367.0,0.0
59.483489,185691.0,0.0
59.51053,185691.0,0.0
59.588485,180440.0,0.0
59.62548,180440.0,0.0
59.660484,170638.0,0.0
59.690478,170638.0,0.0
59.765475,151521.5,0.0
59.80047,151521.5,0.0
59.864468,125744.0,0.0
59.932486,125744.0,0.0
59.95946,114221.0,0.0
60.042456,110580.5,0.0
60.084455,110580.5,0.0
60.129453,130006.0,0.0
60.159448,130006.0,0.0
60.205445,155630.5,0.0
60.232474,155630.5,0.0
60.315441,155685.0,0.0
60.347438,155685.0,0.0
60.385435,191033.5,0.0
60.415433,191033.5,0.0
60.49143,232615.0,0.0
60.526427,232615.0,0.0
60.578424,198237.0,0.0
60.617422,198237.0,0.0
60.658419,152532.5,0.0
60.693418,152532.5,0.0
60.774413,143048.5,0.0
60.812409,143048.5,0.0
60.878406,162459.0,0.0
60.907436,162459.0,0.0
60.991399,173181.0,0.0
61.024398,173181.0,0.0
61.131394,178516.5,0.0
61.165391,178516.5,0.0
61.231388,175506.0,0.0
61.260387,175506.0,0.0
61.371378,174457.0,0.0
61.404375,174457.0,0.0
61.483372,180697.5,0.0
61.514368,180697.5,0.0
61.610394,189219.5,0.0
61.639361,189219.5,109.0909090909091
61.725358,208784.5,109.0909090909091
61.756355,208784.5,0.0
61.849408,241236.5,0.0
61.880347,241236.5,0.0
61.957365,273850.5,0.0
61.988341,273850.5,0.0
62.089337,284040.0,0.0
62.123332,284040.0,0.0
62.202329,293813.0,0.0
62.244328,293813.0,0.0
62.331323,294766.0,0.0
62.370318,294766.0,0.0
62.436315,300610.5,0.0
62.470344,300089.0,0.0
62.556366,282245.5,0.0
62.596305,282646.0,0.0
62.654301,266180.0,0.0
62.682299,266180.0,0.0
62.776351,259667.0,0.0
62.820293,259667.0,0.0
62.88029,251282.0,0.0
62.908337,251282.0,0.0
63.006287,241056.0,0.0
63.041278,241056.0,0.0
63.116276,230702.0,0.0
63.154272,230702.0,0.0
63.199269,222245.5,0.0
63.228318,222245.5,85.71428571428571
63.313265,220037.5,85.71428571428571
63.344312,220037.5,85.71428571428571
63.434256,221563.0,0.0
63.469253,221563.0,0.0
63.535249,225815.5,0.0
63.563247,225815.5,0.0
63.656244,227984.0,0.0
63.69324,227984.0,0.0
63.771238,230912.0,0.0
63.809236,230912.0,0.0
63.871232,237160.5,0.0
63.899228,237160.5,0.0
63.984223,245361.5,0.0
64.01022,245361.5,0.0
64.103218,252829.0,0.0
64.145267,252829.0,0.0
64.209212,259444.0,0.0
64.239208,259444.0,0.0
64.306204,263937.0,0.0
64.338202,263937.0,0.0
64.430242,267678.5,0.0
64.468196,267678.5,0.0
64.528191,272002.0,0.0
64.559189,272002.0,0.0
64.639184,276343.5,0.0
64.670183,276343.5,0.0
64.767177,279029.5,0.0
64.813175,279029.5,0.0
64.868171,285659.0,0.0
64.905172,285659.0,0.0
64.976164,283003.0,0.0
65.007163,283003.0,0.0
65.100159,278695.5,0.0
65.139178,278695.5,0.0
65.201154,272715.5,0.0
65.237154,272715.5,0.0
65.297145,266859.0,0.0
65.326144,266859.0,0.0
65.423138,262400.5,0.0
65.454137,262400.5,0.0
65.52619,257792.5,0.0
65.55813,257792.5,0.0
65.633126,256397.5,0.0
65.671125,256397.5,0.0
65.74317,255073.0,0.0
65.768118,255073.0,0.0
65.870112,253857.0,0.0
65.90011,253857.0,0.0
65.968106,252361.0,0.0
65.998104,252361.0,0.0
66.0911,251422.5,0.0
66.134096,251422.5,0.0
66.194095,251641.5,0.0
66.224092,251641.5,0.0
66.287088,252946.5,0.0
66.314084,252946.5,0.0
66.412083,256513.0,0.0
66.443078,256513.0,0.0
66.522074,259659.0,0.0
66.553123,259659.0,0.0
66.624067,261139.0,0.0
66.652066,261139.0,0.0
66.748062,260299.5,0.0
66.787059,260299.5,0.0
66.848054,258026.0,0.0
66.8761,258026.0,0.0
66.973048,256355.0,0.0
67.005075,256355.0,0.0
67.072041,254715.0,0.0
67.101039,254715.0,0.0
67.197035,252400.0,0.0
67.234031,252400.0,0.0
67.280028,249804.0,0.0
67.308079,249804.0,0.0
67.405023,247687.0,0.0
67.446041,247687.0,0.0
67.516017,244664.0,0.0
67.548013,244664.0,0.0
67.61701,240994.5,0.0
67.646009,240994.5,0.0
67.744003,236314.5,0.0
67.790999,236314.5,0.0
67.843045,232094.5,0.0
67.885041,232094.5,0.0
67.952991,229069.5,0.0
67.991987,229069.5,0.0
68.066014,226051.5,0.0
68.09798,226051.5,0.0
68.177975,224520.0,0.0
68.223973,224520.0,0.0
68.276971,222283.0,0.0
68.311968,222283.0,0.0
68.397992,222582.5,0.0
68.437959,222582.5,0.0
68.495956,224667.5,0.0
68.527956,224667.5,0.0
68.608952,230526.0,0.0
68.638951,230526.0,0.0
68.729943,237271.5,0.0
68.77194,237271.5,0.0
68.832939,245722.0,0.0
68.867936,245722.0,0.0
68.944931,253376.0,0.0
68.982929,253376.0,0.0
69.056925,260745.5,0.0
69.092923,260745.5,0.0
69.168917,266153.0,0.0
69.206914,266153.0,0.0
69.268912,269540.0,0.0
69.305909,269540.0,0.0
69.376956,271739.0,0.0
69.410903,271739.0,0.0
69.501898,272527.0,0.0
69.539897,272527.0,0.0
69.603892,272559.0,0.0
69.635889,272559.0,0.0
69.723886,269936.5,0.0
69.758882,269936.5,0.0
69.836884,264080.0,0.0
69.875925,264080.0,0.0
69.937872,258294.0,0.0
69.97287,258294.0,0.0
70.058871,250210.0,0.0
70.091865,250210.0,0.0
70.165859,252143.5,0.0
70.203858,252143.5,0.0
70.284853,247985.5,0.0
70.323849,247985.5,0.0
70.367846,244016.5,0.0
70.395845,244016.5,0.0
70.49087,240914.0,0.0
70.518838,240914.0,0.0
70.590833,237142.5,0.0
70.617832,237142.5,0.0
70.715828,228232.0,0.0
70.753871,228232.0,0.0
70.828821,227932.5,0.0
70.865858,227932.5,0.0
70.940864,229130.5,0.0
70.967811,229130.5,0.0
71.052808,233235.0,0.0
71.082854,233235.0,0.0
71.1518,241173.5,0.0
71.178798,241173.5,0.0
71.276795,258426.0,0.0
71.315793,258426.0,0.0
71.360836,271384.5,0.0
71.389837,271384.5,0.0
71.485782,284146.5,0.0
71.521778,284146.5,62.06896551724138
71.590775,295945.0,62.06896551724138
71.624772,295945.0,0.0
71.695769,303777.5,72.0
71.731766,303777.5,0.0
71.821763,302735.5,0.0
71.856759,302735.5,0.0
71.927757,306433.5,0.0
71.959753,306433.5,0.0
72.03875,301409.0,0.0
72.069746,301409.0,0.0
72.152743,302274.5,0.0
72.19074,302274.5,0.0
72.263741,303594.0,0.0
72.300733,303594.0,0.0
72.351732,322594.5,0.0
72.38278,322594.5,0.0
72.472724,314936.5,112.49999999999999
72.515752,314936.5,112.49999999999999
72.557717,318950.0,90.0
72.589738,318950.0,0.0
72.656712,320268.5,0.0
72.69171,320268.5,75.0
72.769706,308781.0,0.0
72.805703,308781.0,0.0
72.862702,308995.0,0.0
72.890698,308995.0,0.0
72.957694,301934.0,0.0
72.983692,301934.0,0.0
73.06369,301639.0,0.0
73.097687,301639.0,0.0
73.172683,301540.5,0.0
73.206681,301540.5,0.0
73.279675,300340.5,0.0
73.315672,300340.5,0.0
73.359672,299183.5,0.0
73.387691,299183.5,0.0
73.453664,306069.0,0.0
73.478663,306069.0,0.0
73.574719,305816.5,0.0
73.607658,305816.5,0.0
73.661652,305792.0,0.0
73.686695,305792.0,0.0
73.767652,305568.0,0.0
73.807644,305568.0,0.0
73.854641,305629.0,0.0
73.879639,305629.0,0.0
73.968634,303803.5,0.0
74.004635,303803.5,0.0
74.066632,301983.5,0.0
74.099628,301983.5,0.0
74.160623,299310.5,0.0
74.194621,299310.5,0.0
74.25762,297054.0,0.0
74.290616,297054.0,0.0
74.368659,296507.0,0.0
74.404609,296507.0,0.0
74.462605,296361.0,0.0
74.491603,296361.0,0.0
74.568601,290640.0,0.0
74.603597,290640.0,0.0
74.679594,291927.5,0.0
74.710591,291927.5,0.0
74.776588,293472.0,0.0
74.808585,293472.0,0.0
74.865582,294544.5,0.0
74.902579,294544.5,0.0
74.959576,296588.0,0.0
74.990574,296588.0,0.0
75.086568,304856.5,0.0
75.135599,304856.5,0.0
75.175563,305778.0,0.0
75.26456,305226.5,0.0
75.30156,305226.5,0.0
75.361552,306601.5,0.0
75.393552,306601.5,0.0
75.473547,306022.0,0.0
75.511543,306022.0,0.0
75.57254,298273.0,0.0
75.608538,298273.0,0.0
75.664535,297702.0,0.0
75.721531,297702.0,0.0
75.769529,297448.0,0.0
75.808526,297448.0,0.0
75.874525,297260.5,0.0
75.91252,297260.5,0.0
75.968517,296696.0,85.71428571428571
76.004515,296696.0,0.0
76.062511,302973.5,0.0
76.093509,302973.5,0.0
76.187506,303567.5,0.0
76.227503,303567.5,0.0
76.275498,304492.5,0.0
76.311498,304492.5,0.0
76.367493,305722.5,0.0
76.399491,305722.5,0.0
76.464487,306132.0,0.0
76.493488,306132.0,63.1578947368421
76.573481,300999.0,63.1578947368421
76.604479,300999.0,54.54545454545455
76.672475,301137.0,70.58823529411765
76.704473,301137.0,54.54545454545455
76.770469,299319.0,54.54545454545455
76.802468,299319.0,54.54545454545455
76.877489,297966.0,54.54545454545455
76.918462,297966.0,0.0
76.983457,295895.5,0.0
77.021456,295895.5,0.0
77.075451,299226.0,0.0
77.116449,299226.0,0.0
77.177447,296020.0,0.0
77.219443,296020.0,0.0
77.27044,294092.0,0.0
77.309437,294092.0,85.71428571428571
77.376436,291347.5,85.71428571428571
77.413431,291347.5,64.28571428571428
77.468428,289230.0,64.28571428571428
77.497426,289230.0,92.3076923076923
77.569423,288212.0,0.0
77.61242,288212.0,0.0
77.665417,286713.5,0.0
77.700417,286713.5,0.0
77.776409,286621.5,0.0
77.813408,286621.5,0.0
77.873405,285157.0,0.0
77.908403,285157.0,0.0
77.970398,284877.5,0.0
78.004396,284877.5,0.0
78.081392,286080.0,0.0
78.120389,286080.0,0.0
78.177386,287001.5,0.0
78.209428,287001.5,75.0
78.272384,279646.5,75.0
78.305379,279646.5,0.0
78.370377,252874.0,0.0
78.396376,252874.0,0.0
78.475419,237496.0,0.0
78.504369,237496.0,0.0
78.571362,233869.0,0.0
78.60436,233869.0,0.0
78.667386,226150.5,0.0
78.693357,226150.5,0.0
78.763418,222260.0,0.0
78.7904,222260.0,0.0
78.883345,223061.0,0.0
78.916344,223061.0,0.0
78.97434,223376.5,0.0
79.000337,223376.5,0.0
79.067333,224574.5,0.0
79.093335,224574.5,0.0
79.163335,224900.5,0.0
79.190326,224900.5,0.0
79.283324,224002.5,0.0
79.323321,224002.5,0.0
79.372315,223572.5,0.0
79.39737,223572.5,0.0
79.468311,222999.0,0.0
79.493342,222999.0,0.0
79.588305,224881.0,0.0
79.627303,224881.0,0.0
79.677301,251246.0,0.0
79.703297,251246.0,0.0
79.779293,277488.0,0.0
79.813293,277488.0,0.0
79.871301,283116.0,0.0
79.903286,283116.0,0.0
79.998286,283670.0,0.0
80.031278,283670.0,0.0
80.081274,275502.5,0.0
80.110272,275502.5,0.0
80.177272,269937.5,0.0
80.240266,269937.5,0.0
80.284261,261850.5,0.0
80.399262,250403.5,0.0
80.443253,250403.5,0.0
80.483249,232449.5,0.0
80.521248,232449.5,0.0
80.578245,220404.0,0.0
80.612242,220404.0,0.0
80.674271,201889.0,100.0
80.707238,201889.0,100.0
80.783235,184865.0,100.0
80.81823,184865.0,0.0
80.880228,169061.0,0.0
80.911227,169061.0,0.0
80.989227,158699.5,0.0
81.023218,158699.5,0.0
81.08327,150810.0,0.0
81.125214,150810.0,0.0
81.19721,143019.0,0.0
81.228206,143019.0,0.0
81.279203,136474.5,0.0
81.307201,136474.5,0.0
81.388224,127729.0,0.0
81.427194,127729.0,0.0
81.488191,128738.0,0.0
81.526189,128738.0,0.0
81.582236,129406.0,0.0
81.611183,129406.0,0.0
81.69118,127253.0,0.0
81.729177,127253.0,0.0
81.776174,129328.0,0.0
81.803172,129328.0,0.0
81.901169,134296.5,0.0
81.937196,134296.5,0.0
81.983162,142470.0,0.0
82.010159,142470.0,0.0
82.079207,151643.5,0.0
82.108155,151643.5,0.0
82.191197,158553.0,0.0
82.22615,158553.0,0.0
82.297145,162289.0,0.0
82.332144,162289.0,0.0
82.386141,162494.5,0.0
82.417136,162494.5,0.0
82.481135,153186.5,0.0
82.511133,153186.5,0.0
82.576127,149252.5,0.0
82.612125,149252.5,0.0
82.68512,141880.0,0.0
82.712167,141880.0,0.0
82.799116,133337.0,0.0
82.845113,133337.0,0.0
82.882112,122055.5,0.0
82.913107,122055.5,0.0
83.005104,115367.0,0.0
83.046099,115367.0,0.0
83.087097,107009.5,0.0
83.117095,107009.5,0.0
83.186092,94950.5,100.0
83.221088,94950.5,0.0
83.280085,91199.5,0.0
83.312083,91199.5,0.0
83.394078,92911.0,0.0
83.424077,92911.0,0.0
83.487073,100614.5,0.0
83.517072,100614.5,0.0
83.585067,114772.5,0.0
83.616068,114772.5,0.0
83.680062,128790.5,0.0
83.710063,128790.5,0.0
83.791106,136066.0,0.0
83.819055,136066.0,0.0
83.899054,136325.0,0.0
83.933096,136325.0,0.0
83.998049,139262.0,0.0
84.03604,139262.0,0.0
84.079068,137089.5,0.0
84.107036,137089.5,0.0
84.205037,146416.0,0.0
84.245031,146416.0,0.0
84.288028,145906.5,0.0
84.316024,145906.5,0.0
84.39502,135889.5,0.0
84.428068,135889.5,0.0
84.524014,138060.5,0.0
84.555009,138060.5,0.0
84.623006,153046.0,0.0
84.650003,153046.0,0.0
84.764,156783.0,0.0
84.795996,156783.0,0.0
84.864041,172546.5,0.0
84.89299,172546.5,0.0
85.002984,195487.5,0.0
85.035982,195487.5,0.0
85.119038,221291.0,0.0
85.166974,221291.0,0.0
85.23397,256243.5,0.0
85.269019,256243.5,0.0
85.345997,290384.5,0.0
85.378962,290384.5,114.28571428571429
85.469958,334204.0,105.88235294117648
85.502954,334204.0,0.0
85.592956,345563.0,109.0909090909091
85.630947,345563.0,109.0909090909091
85.724943,363909.0,0.0
85.759939,363909.0,109.0909090909091
85.823938,372597.0,100.0
85.867937,372597.0,100.0
85.933929,337018.5,0.0
85.966929,337018.5,0.0
86.060922,349795.0,0.0
86.094919,349795.0,0.0
86.146918,276347.5,0.0
86.183948,276347.5,0.0
86.25691,236144.0,0.0
86.288908,236144.0,0.0
86.348904,207323.5,0.0
86.373903,207323.5,0.0
86.464899,191835.0,0.0
86.498895,191835.0,0.0
86.542895,157633.0,0.0
86.571891,157633.0,0.0
86.650888,173923.5,0.0
86.682884,173923.5,0.0
86.718912,184718.5,0.0
86.746881,184718.5,0.0
86.821879,190859.0,0.0
86.858874,190859.0,0.0
86.895872,191268.0,0.0
86.92487,191268.0,109.0909090909091
86.991866,192129.0,85.71428571428571
87.028867,192129.0,85.71428571428571
87.086861,193845.5,85.71428571428571
87.117911,193845.5,85.71428571428571
87.165907,197206.0,0.0
87.192854,197206.0,0.0
87.26385,201603.5,0.0
87.290849,201603.5,85.71428571428571
87.359847,205398.0,85.71428571428571
87.391845,205398.0,85.71428571428571
87.443844,213412.5,85.71428571428571
87.482838,213412.5,0.0
87.536835,214868.0,0.0
87.567865,214868.0,0.0
87.631829,224298.5,100.0
87.691828,224298.5,100.0
87.730823,221438.5,100.0
87.806819,226891.0,100.0
87.839816,226891.0,0.0
87.889813,240928.0,0.0
87.921813,240928.0,0.0
87.973809,235367.5,0.0
88.004807,235367.5,0.0
88.063805,234829.5,0.0
88.096801,234829.5,0.0
88.144799,233538.5,0.0
88.173797,233538.5,92.3076923076923
88.223795,232445.0,100.0
88.262793,232445.0,0.0
88.305789,225709.5,0.0
88.342787,225709.5,0.0
88.388785,219019.5,0.0
88.424784,219019.5,0.0
88.46678,219518.5,0.0
88.503778,219518.5,0.0
88.546775,220362.5,0.0
88.580772,220362.5,0.0
88.623771,221035.0,0.0
88.658768,221035.0,0.0
88.707765,220496.0,0.0
88.739763,220496.0,0.0
88.786761,218632.0,0.0
88.822758,218632.0,0.0
88.868757,217974.5,0.0
88.897753,217974.5,0.0
88.939751,219008.5,0.0
88.965749,219008.5,0.0
89.018747,219632.5,0.0
89.045749,219632.5,0.0
89.098778,222162.0,0.0
89.12874,222162.0,0.0
89.18374,215601.0,0.0
89.218735,215601.0,0.0
89.264736,217550.5,0.0
89.30273,217550.5,0.0
89.346727,219801.0,0.0
89.378725,219801.0,0.0
89.426722,220151.5,0.0
89.465722,220151.5,0.0
89.505718,221296.5,0.0
89.540717,221296.5,0.0
89.585715,228638.5,0.0
89.625711,228638.5,0.0
89.665708,229668.5,0.0
89.700709,229668.5,0.0
89.744704,230499.0,0.0
89.779703,230499.0,0.0
89.8237,223854.0,0.0
89.854699,223854.0,0.0
89.904695,224324.0,0.0
89.941695,224324.0,0.0
89.98569,225191.5,0.0
90.020691,225191.5,0.0
90.065685,225444.5,0.0
90.103684,225444.5,0.0
90.147681,218071.0,0.0
90.189679,218071.0,0.0
90.226678,217701.0,75.0
90.263673,217701.0,75.0
90.306672,216561.5,0.0
90.357669,216561.5,0.0
90.417665,216825.5,0.0
90.472662,215703.0,0.0
90.511659,215703.0,0.0
90.547656,215819.5,0.0
90.581655,215819.5,0.0
90.629652,215173.5,0.0
90.66165,215173.5,0.0
90.707647,214180.5,0.0
90.745645,214180.5,0.0
90.787643,213011.5,0.0
90.827641,213011.5,0.0
90.869638,212693.5,0.0
90.904637,212693.5,0.0
90.951633,211378.5,0.0
90.990632,211378.5,0.0
91.028628,210896.5,0.0
91.103624,210146.5,0.0
91.140654,210146.5,0.0
91.182619,209280.5,0.0
91.206618,209280.5,0.0
91.267616,209070.0,0.0
91.305613,209070.0,0.0
91.34061,208910.5,0.0
91.371624,208910.5,0.0
91.420605,208991.0,0.0
91.452604,208991.0,0.0
91.506603,207935.0,0.0
91.538599,207935.0,0.0
91.579595,207784.0,0.0
91.612598,207784.0,0.0
91.665591,206917.5,0.0
91.69759,206917.5,0.0
91.747586,207936.5,0.0
91.780615,207936.5,88.88888888888889
91.823582,208031.5,0.0
91.853604,208031.5,109.0909090909091
91.903578,208417.5,0.0
91.940577,208417.5,0.0
91.983572,208994.5,0.0
92.013571,208994.5,0.0
92.062567,210278.0,0.0
92.091567,210278.0,0.0
92.148562,209796.5,0.0
92.183561,209796.5,0.0
92.227559,210435.5,0.0
92.259558,210435.5,0.0
92.301553,210387.0,0.0
92.338551,210387.0,0.0
92.385551,210813.0,0.0
92.420546,210813.0,0.0
92.471545,210756.5,0.0
92.507541,210756.5,0.0
92.546538,210132.5,75.0
92.581538,210132.5,75.0
92.623536,208850.5,75.0
92.666534,208850.5,100.0
92.70753,206790.5,100.0
92.740527,206790.5,75.0
92.785525,206853.0,0.0
92.817523,206853.0,0.0
92.86352,206122.5,0.0
92.891519,206122.5,0.0
92.958517,205100.0,109.0909090909091
93.000513,205100.0,0.0
93.041511,204577.0,0.0
93.103506,204489.0,75.0
93.135504,204489.0,0.0
93.183504,206845.0,0.0
93.2155,206845.0,0.0
93.263497,197396.0,0.0
93.288495,197396.0,0.0
93.323493,187156.0,0.0
93.34949,187156.0,0.0
93.386489,187729.5,0.0
93.411497,187729.5,0.0
93.489484,187853.5,0.0
93.522482,187853.5,0.0
93.56348,187744.0,0.0
93.610475,188821.0,0.0
93.635475,188821.0,0.0
93.674472,196166.0,0.0
93.699471,196166.0,0.0
93.741499,189140.0,0.0
93.766481,189140.0,0.0
93.819464,188347.5,0.0
93.844463,188347.5,0.0
93.88546,188572.0,0.0
93.911509,188572.0,0.0
93.963455,188560.0,0.0
93.989455,188560.0,0.0
94.027452,189215.5,0.0
94.051449,189215.5,0.0
94.093449,189359.0,0.0
94.117446,189359.0,0.0
94.179445,190060.5,0.0
94.220445,190060.5,0.0
94.256438,189565.5,0.0
94.300437,189122.5,0.0
94.335434,189122.5,0.0
94.386431,189431.0,0.0
94.425428,189431.0,0.0
94.463426,189380.5,0.0
94.525422,188525.0,92.3076923076923
94.553421,188525.0,92.3076923076923
94.592418,188252.0,66.66666666666667
94.629417,188252.0,66.66666666666667
94.664414,187057.5,0.0
94.73541,186041.0,66.66666666666667
94.774407,186041.0,0.0
94.814406,184397.0,0.0
94.879402,183658.5,0.0
94.914424,183658.5,0.0
94.9494,182828.5,0.0
95.008396,181647.5,0.0
95.042393,181647.5,0.0
95.088389,181567.0,0.0
95.156385,181499.5,0.0
95.195384,181499.5,54.54545454545455
95.233404,180793.0,54.54545454545455
95.297377,180478.5,0.0
95.337375,180478.5,0.0
95.372371,180456.5,0.0
95.44637,171918.5,0.0
95.481365,171918.5,0.0
95.508367,170781.5,0.0
95.562361,170534.5,0.0
95.591359,170534.5,0.0
95.643386,169639.5,0.0
95.670355,169639.5,0.0
95.709352,168584.5,0.0
95.736402,168584.5,0.0
95.787347,168516.0,0.0
95.815405,168516.0,0.0
95.852344,168861.5,0.0
95.882342,168861.5,0.0
95.91634,168723.5,0.0
95.941345,168723.5,0.0
95.995335,167998.5,0.0
96.022334,167998.5,0.0
96.060332,167940.0,0.0
96.08733,167940.0,0.0
96.123347,168104.5,0.0
96.150326,168104.5,0.0
96.203339,167441.5,0.0
96.230325,167441.5,0.0
96.268319,167418.5,0.0
96.294318,167418.5,0.0
96.347317,166998.5,0.0
96.37532,166998.5,0.0
96.413311,168106.5,0.0
96.447311,168106.5,0.0
96.483309,168348.0,0.0
96.514305,168348.0,0.0
96.557303,168549.0,0.0
96.593301,168549.0,0.0
96.631298,168206.5,66.66666666666667
96.704293,167075.0,0.0
96.738294,167075.0,75.0
96.77329,166430.5,75.0
96.833287,165769.0,100.0
96.872285,165769.0,0.0
96.91228,164596.0,75.0
96.94828,164596.0,0.0
96.989278,164193.0,0.0
97.042274,163343.5,0.0
97.075273,163343.5,0.0
97.11427,162997.5,0.0
97.185265,162552.0,0.0
97.221263,162552.0,0.0
97.26926,178110.5,0.0
97.305258,178110.5,66.66666666666667
97.337256,173144.5,66.66666666666667
97.373254,162232.0,66.66666666666667
97.403254,162232.0,66.66666666666667
97.438282,161403.5,66.66666666666667
97.511248,161005.0,0.0
97.54827,161005.0,0.0
97.576242,154753.5,0.0
97.612247,143194.0,0.0
97.656238,143194.0,0.0
97.690235,146223.5,0.0
97.745233,151052.0,0.0
97.771231,151052.0,0.0
97.799229,157844.0,0.0
97.850226,163327.0,0.0
97.877224,163327.0,0.0
97.917223,179074.5,0.0
97.980219,213917.0,0.0
98.008224,213917.0,0.0
98.038216,220209.0,0.0
98.076213,222209.0,0.0
98.124268,231755.5,0.0
98.153213,231755.5,0.0
98.189206,235576.0,0.0
98.226207,242958.5,0.0
98.289201,254462.5,0.0
98.337198,272330.5,0.0
98.375195,272330.5,0.0
98.416193,288103.0,0.0
98.456191,301806.5,0.0
98.494188,325402.0,0.0
98.534187,335204.5,0.0
98.575184,338540.5,0.0
98.617181,353439.5,0.0
98.657179,357731.5,0.0
98.691176,368292.0,0.0
98.728174,371756.0,0.0
98.770173,383419.5,100.0
98.809169,390688.5,0.0
98.849168,396902.5,0.0
98.890166,395164.5,0.0
98.928163,387868.5,0.0
98.965161,369674.5,0.0
99.010157,354384.0,0.0
99.045156,337308.5,0.0
99.120151,305746.0,0.0
99.153151,305746.0,0.0
99.192147,289036.5,0.0
99.226145,274522.0,66.66666666666667
99.265142,263199.5,54.54545454545455
99.295143,254920.0,54.54545454545455
99.32214,251405.0,0.0
99.355138,251782.0,0.0
99.404134,252750.5,0.0
99.437191,257582.0,0.0
99.467132,257582.0,0.0
99.51613,263970.5,0.0
99.550128,263970.5,0.0
99.584124,269928.0,0.0
99.617122,280881.0,0.0
99.65612,292621.0,0.0
99.694117,305394.0,0.0
99.730116,316357.5,0.0
99.771115,325226.5,0.0
99.810112,334725.0,0.0
99.845109,333229.5,0.0
99.916104,322161.0,0.0
99.943113,322161.0,0.0
99.976107,316942.5,0.0
100.008099,302934.0,0.0
100.044097,276987.5,0.0
100.079096,243317.0,66.66666666666667
100.112093,243317.0,66.66666666666667
100.14509,206070.0,66.66666666666667
100.180089,177035.5,66.66666666666667
100.21509,162535.0,66.66666666666667
100.276083,156590.0,0.0
100.32708,152246.5,0.0
100.385077,152246.5,0.0
100.423075,139846.0,0.0
100.466073,134451.0,0.0
100.50207,131085.5,0.0
100.541069,129682.5,0.0
100.578065,131518.5,0.0
100.615064,133175.5,0.0
100.650061,140393.0,0.0
100.721057,146690.0,0.0
100.757056,146690.0,0.0
100.82305,156986.5,0.0
100.861055,162218.5,0.0
100.896046,170627.5,0.0
100.929044,168959.0,0.0
100.967042,165140.5,0.0
101.00804,168609.5,0.0
101.040038,176038.5,0.0
101.120034,167988.0,0.0
101.154032,167988.0,0.0
101.19703,158469.5,0.0
101.232027,155893.0,0.0
101.267025,148162.0,0.0
101.298024,126413.0,0.0
101.34102,129893.5,0.0
101.389018,147131.0,0.0
101.415018,147131.0,0.0
101.441016,148155.0,0.0
101.486061,132345.5,0.0
101.55101,134372.0,0.0
101.579011,134372.0,0.0
101.632003,140411.0,0.0
101.659006,140411.0,0.0
101.695,134564.0,0.0
101.722997,134564.0,0.0
101.772995,133370.5,0.0
101.802017,133370.5,0.0
101.837991,135815.5,0.0
101.867015,135815.5,0.0
101.902987,115463.5,0.0
101.93002,115463.5,0.0
102.030981,117614.5,0.0
102.069977,117614.5,109.0909090909091
102.115977,123332.0,109.0909090909091
102.148974,123332.0,0.0
102.207971,131686.5,0.0
102.244969,131686.5,109.0909090909091
102.312965,94434.0,109.0909090909091
102.348961,94434.0,0.0
102.417956,74801.0,0.0
102.448955,74801.0,54.54545454545455
102.513954,79600.0,0.0
102.544949,79600.0,0.0
102.607948,134236.0,0.0
102.635944,134236.0,54.54545454545455
102.70494,143025.5,54.54545454545455
102.736939,143025.5,54.54545454545455
102.827982,114883.0,54.54545454545455
102.87193,114883.0,54.54545454545455
102.915928,119458.0,54.54545454545455
102.955959,119458.0,54.54545454545455
103.009922,125854.0,57.142857142857146
103.037922,125854.0,57.142857142857146
103.100967,101371.0,57.142857142857146
103.125967,101371.0,109.0909090909091
103.22191,86164.5,109.0909090909091
103.250908,86164.5,109.0909090909091
103.309904,78734.5,109.0909090909091
103.337903,78734.5,105.88235294117648
103.452898,112228.0,105.88235294117648
103.489896,112228.0,0.0
103.55589,122778.5,0.0
103.589888,122778.5,0.0
103.694884,121509.0,0.0
103.731882,121509.0,0.0
103.793876,112610.5,60.0
103.825875,112610.5,66.66666666666667
103.948871,124982.5,66.66666666666667
103.997865,124982.5,66.66666666666667
104.10886,133512.0,66.66666666666667
104.147855,133512.0,70.58823529411765
104.248851,120086.0,70.58823529411765
104.294848,120086.0,70.58823529411765
104.414841,128039.0,0.0
104.465836,128039.0,0.0
104.545837,167769.5,0.0
104.580831,167769.5,78.26086956521739
104.701825,182038.0,85.71428571428571
104.748819,182038.0,85.71428571428571
104.848813,183807.0,85.71428571428571
104.886812,183807.0,85.71428571428571
104.99981,191241.0,85.71428571428571
105.037805,191241.0,94.73684210526315
105.161798,190166.5,94.73684210526315
105.195796,190166.5,80.0
105.307793,161625.0,80.0
105.350785,161625.0,80.0
105.440782,161493.5,85.71428571428571
105.469779,161493.5,85.71428571428571
105.610774,171441.0,85.71428571428571
105.643767,171441.0,92.3076923076923
105.751763,172277.5,85.71428571428571
105.779758,172277.5,85.71428571428571
105.916753,186338.5,92.3076923076923
105.952748,186338.5,94.73684210526315
106.060792,195833.5,92.3076923076923
106.099772,195833.5,75.0
106.204796,212800.5,85.71428571428571
106.256734,212800.5,85.71428571428571
106.352728,212257.0,75.0
106.384726,212257.0,72.0
106.50372,232489.5,66.66666666666667
106.538717,232489.5,90.0
106.664708,232877.5,85.71428571428571
106.699704,232877.5,85.71428571428571
106.8077,254830.5,85.71428571428571
106.840696,254830.5,85.71428571428571
106.952691,255982.0,85.71428571428571
106.991688,255982.0,85.71428571428571
107.116682,270563.0,116.66666666666666
107.152678,270563.0,0.0
107.261678,263179.5,0.0
107.29467,263179.5,105.0
107.420666,298004.0,105.0
107.45666,298004.0,97.2972972972973
107.566659,290915.0,97.2972972972973
107.598655,290915.0,96.0
107.711651,326271.0,97.2972972972973
107.748643,326271.0,104.34782608695652
107.868638,316793.0,104.34782608695652
107.900634,316793.0,104.34782608695652
108.012629,349972.0,104.34782608695652
108.048625,349972.0,111.11111111111111
108.169669,349207.5,111.11111111111111
108.198616,349207.5,0.0
108.316616,367758.5,0.0
108.346638,367758.5,100.0
108.466608,367842.5,0.0
108.499598,367842.5,115.38461538461539
108.619641,396683.0,0.0
108.650641,396683.0,0.0
108.762583,395901.0,0.0
108.795581,395901.0,0.0
108.919576,432863.5,0.0
108.951574,432863.5,0.0
109.064571,432029.0,0.0
109.095564,432029.0,0.0
109.208559,464957.0,0.0
109.243555,464957.0,0.0
109.370548,458229.5,0.0
109.403545,458229.5,0.0
109.51654,440120.5,0.0
109.548537,440120.5,0.0
109.676531,442681.0,0.0
109.714527,442681.0,0.0
109.819526,473137.5,0.0
109.869517,473137.5,0.0
109.951514,479712.0,0.0
109.991541,479712.0,112.49999999999999
110.122511,501517.5,107.14285714285714
110.157503,501517.5,0.0
110.267552,503650.0,0.0
110.307543,503650.0,107.14285714285714
110.424487,513520.5,0.0
110.469482,513520.5,0.0
110.57148,510571.5,0.0
110.604477,510571.5,0.0
110.71547,508660.0,0.0
110.748466,508660.0,0.0
110.870504,510848.0,0.0
110.902457,510848.0,0.0
111.017452,511999.5,0.0
111.048449,511999.5,75.0
111.180443,508053.5,0.0
111.225439,508053.5,0.0
111.319494,508240.5,0.0
111.345431,508240.5,112.49999999999999
111.471423,507429.5,0.0
111.512422,507429.5,0.0
111.627472,508627.5,0.0
111.669412,508627.5,100.0
111.768464,510900.5,100.0
111.795404,510900.5,100.0
111.931403,510176.0,0.0
111.976394,510176.0,0.0
112.072394,510835.5,0.0
112.110386,510835.5,0.0
112.216385,506638.0,0.0
112.250378,506638.0,0.0
112.377376,506975.0,0.0
112.414368,506975.0,0.0
112.520367,507553.0,0.0
112.556359,507553.0,112.49999999999999
112.684354,507237.0,0.0
112.729352,507237.0,0.0
112.828349,507401.0,0.0
112.866343,507401.0,0.0
112.969335,507534.5,0.0
112.998386,507534.5,0.0
113.123328,504870.5,0.0
113.166323,504870.5,0.0
113.267319,503109.0,0.0
113.303316,503109.0,0.0
113.411311,498531.5,0.0
113.442348,498531.5,0.0
113.579305,496935.0,0.0
113.621297,496935.0,0.0
113.72129,496700.5,100.0
113.752289,496700.5,85.71428571428571
113.880287,496991.0,85.71428571428571
113.925337,496991.0,85.71428571428571
114.025275,493464.5,85.71428571428571
114.06427,493464.5,70.58823529411765
114.171265,491513.5,66.66666666666667
114.212261,491513.5,60.0
114.334257,489275.0,0.0
114.384285,489275.0,0.0
114.466248,489081.0,0.0
114.503244,489081.0,0.0
114.639239,488915.5,0.0
114.677234,488915.5,60.0
114.779256,488877.5,0.0
114.828227,488877.5,0.0
114.914222,485959.0,0.0
114.951219,485959.0,0.0
115.084218,479120.5,75.0
115.133209,479120.5,0.0
115.216203,478692.0,0.0
115.2532,478692.0,0.0
115.391194,480760.0,0.0
115.433192,480760.0,0.0
115.521184,479916.0,0.0
115.555183,479916.0,0.0
115.676178,477219.5,75.0
115.730175,477219.5,0.0
115.832172,480127.0,100.0
115.881163,480127.0,100.0
115.96921,483419.0,75.0
116.005156,483419.0,75.0
116.141206,486541.0,75.0
116.186145,486541.0,0.0
116.273142,488397.5,0.0
116.30614,488397.5,75.0
116.429138,488898.5,60.0
116.475129,488898.5,90.0
116.585123,489223.5,90.0
116.624123,489223.5,100.0
116.734116,488156.5,100.0
116.776112,488156.5,0.0
116.893106,488927.0,85.71428571428571
116.933102,488927.0,85.71428571428571
117.037097,487695.0,100.0
117.076093,487695.0,100.0
117.185088,487014.5,0.0
117.232085,487014.5,0.0
117.347078,488517.0,100.0
117.380076,488517.0,0.0
117.47107,489034.5,0.0
117.505068,489034.5,0.0
117.637063,491188.5,0.0
117.668058,491188.5,0.0
117.775052,491463.0,92.3076923076923
117.80505,491463.0,0.0
117.926092,492811.0,92.3076923076923
117.96404,492811.0,100.0
118.090047,492823.5,114.28571428571429
118.126031,492823.5,0.0
118.236085,493530.0,0.0
118.269022,493530.0,100.0
118.395048,493009.0,0.0
118.428013,493009.0,100.0
118.539013,490156.5,100.0
118.570039,490156.5,100.0
118.686,491383.0,0.0
118.729995,491383.0,0.0
118.843995,490519.0,0.0
118.875987,490519.0,0.0
118.993982,494518.0,0.0
119.030977,494518.0,72.72727272727273
119.144977,496559.0,66.66666666666667
119.181969,496559.0,78.26086956521739
119.287965,503997.5,66.66666666666667
119.32396,503997.5,66.66666666666667
119.440956,508831.0,0.0
119.485952,508831.0,0.0
119.590945,512026.5,66.66666666666667
119.623984,512026.5,69.23076923076924
119.741938,517167.0,88.23529411764706
119.777936,517167.0,0.0
119.901986,519730.0,0.0
119.945975,519730.0,0.0
120.04592,521977.0,0.0
120.079916,521977.0,0.0
120.184912,518966.0,0.0
120.217942,518966.0,0.0
120.343906,517561.5,0.0
120.375899,517561.5,0.0
120.487952,517969.0,0.0
120.52089,517969.0,0.0
120.650882,518818.0,0.0
120.678881,518818.0,0.0
120.796876,519563.5,0.0
120.826872,519563.5,0.0
120.940867,521421.0,0.0
120.974863,521421.0,0.0
121.099856,519113.0,0.0
121.131854,519113.0,0.0
121.244849,518583.5,0.0
121.275846,518583.5,0.0
121.400861,518275.0,0.0
121.430836,518275.0,0.0
121.54589,518285.5,0.0
121.573828,518285.5,0.0
121.690881,519175.5,0.0
121.720862,519175.5,0.0
121.850814,516542.0,0.0
121.881809,516542.0,0.0
121.999854,509828.5,0.0
122.029804,509828.5,0.0
122.151796,505460.0,0.0
122.192791,505460.0,0.0
122.299785,499865.0,0.0
122.340783,499865.0,0.0
122.431777,489330.5,0.0
122.470775,489330.5,0.0
122.603769,487297.0,0.0
122.641767,487297.0,0.0
122.750758,486354.5,0.0
122.786756,486354.5,0.0
122.89675,487190.5,75.0
122.935779,487190.5,75.0
123.053788,487314.0,0.0
123.09474,487314.0,0.0
123.185733,487484.5,0.0
123.219731,487484.5,0.0
123.359782,487287.5,0.0
123.404721,487287.5,0.0
123.501714,488999.5,0.0
123.542715,488999.5,0.0
123.638735,487059.0,0.0
123.677735,487059.0,0.0
123.799756,489907.5,0.0
123.840695,489907.5,60.0
123.952688,489739.0,0.0
123.992686,489739.0,0.0
124.10968,491270.0,0.0
124.148676,491270.0,0.0
124.252718,491013.5,0.0
124.288712,491013.5,0.0
124.396664,485423.0,0.0
124.445661,485423.0,0.0
124.552654,482419.5,0.0
124.591651,482419.5,0.0
124.69765,481413.0,0.0
124.731642,481413.0,0.0
124.856641,476857.0,0.0
124.894631,476857.0,0.0
125.000626,476282.0,0.0
125.031624,476282.0,0.0
125.143619,485056.5,0.0
125.179616,485056.5,0.0
125.311609,507506.5,0.0
125.355605,507506.5,0.0
125.455603,524946.0,0.0
125.495603,524946.0,0.0
125.617591,561176.0,0.0
125.693586,561176.0,0.0
125.753581,569221.5,0.0
125.804579,569221.5,0.0
125.888573,579049.0,0.0
125.923572,579049.0,0.0
126.064564,490503.0,0.0
126.107562,490503.0,0.0
126.207562,403452.5,0.0
126.247558,403452.5,0.0
126.354547,322491.5,0.0
126.394544,322491.5,0.0
126.494538,284077.0,0.0
126.527538,284077.0,0.0
126.63753,281674.5,0.0
126.666528,281674.5,0.0
126.80352,301393.5,0.0
126.840567,301393.5,0.0
126.947512,333708.5,0.0
126.992532,333708.5,0.0
127.111503,382880.0,0.0
127.145499,382880.0,0.0
127.256499,392615.5,0.0
127.29349,392615.5,0.0
127.399486,396282.0,0.0
127.426483,396282.0,0.0
127.559477,389782.5,0.0
127.596472,389782.5,0.0
127.705472,366008.0,0.0
127.742464,366008.0,0.0
127.864516,337636.5,0.0
127.898474,337636.5,0.0
128.009455,363692.5,0.0
128.048446,363692.5,0.0
128.150485,392818.0,0.0
128.182441,392818.0,0.0
128.319432,431227.5,0.0
128.361428,431227.5,0.0
128.463423,433792.5,0.0
128.498422,433792.5,0.0
128.615461,440618.5,0.0
128.65441,440618.5,0.0
128.767405,441777.5,0.0
128.812401,441777.5,0.0
128.913401,434488.0,0.0
128.955394,434488.0,0.0
129.072444,420237.5,0.0
129.115385,420237.5,0.0
129.216439,385333.0,0.0
129.263375,385333.0,0.0
129.375427,367862.5,0.0
129.417365,367862.5,0.0
129.506361,367242.5,0.0
129.538358,367242.5,66.66666666666667
129.661353,366665.0,66.66666666666667
129.705349,366665.0,0.0
129.821344,366655.0,66.66666666666667
129.86134,366655.0,66.66666666666667
129.962334,367595.5,85.71428571428571
130.003364,367595.5,0.0
130.125325,371985.0,0.0
130.155353,371985.0,0.0
130.269317,374258.0,0.0
130.301313,374258.0,0.0
130.412365,379102.0,0.0
130.465304,379102.0,0.0
130.572299,380371.0,0.0
130.605295,380371.0,0.0
130.71729,377166.0,0.0
130.749289,377166.0,0.0
130.873281,382285.0,0.0
130.904331,382285.0,0.0
131.010272,388578.0,0.0
131.041269,388578.0,0.0
131.16527,396683.5,0.0
131.213262,396683.5,0.0
131.325255,407271.0,0.0
131.355251,407271.0,0.0
131.474246,422361.0,0.0
131.512243,422361.0,0.0
131.622236,434249.0,0.0
131.658232,434249.0,0.0
131.772233,420103.5,100.0
131.812226,420103.5,100.0
131.90522,420180.0,100.0
131.940269,420180.0,0.0
132.07921,403240.0,0.0
132.116206,403240.0,0.0
132.224202,404510.0,0.0
132.274197,404510.0,0.0
132.369192,407741.0,0.0
132.406189,407741.0,0.0
132.514183,406098.0,0.0
132.547211,406098.0,0.0
132.657174,394665.5,0.0
132.697172,394665.5,0.0
132.829166,401158.5,0.0
132.865164,401158.5,0.0
132.975162,411032.0,0.0
133.008153,411032.0,0.0
133.132151,412288.0,0.0
133.167145,412288.0,0.0
133.280137,416492.5,0.0
133.345134,416492.5,75.0
133.409132,415077.5,75.0
133.43718,415077.5,92.3076923076923
133.57618,418303.5,92.3076923076923
133.609122,418303.5,0.0
133.728172,424142.0,0.0
133.764108,424142.0,92.3076923076923
133.86911,423311.0,100.0
133.909104,423311.0,100.0
134.017095,423821.5,100.0
134.048092,423821.5,100.0
134.176087,417855.5,0.0
134.215082,417855.5,0.0
134.333076,417200.5,0.0
134.364098,417200.5,92.3076923076923
134.479074,416141.0,0.0
134.522063,416141.0,0.0
134.610059,415521.0,0.0
134.644058,415521.0,0.0
134.776051,419380.5,92.3076923076923
134.811056,419380.5,92.3076923076923
134.921043,424815.5,0.0
134.957039,424815.5,104.34782608695652
135.083051,426963.0,104.34782608695652
135.115047,426963.0,104.34782608695652
135.229024,426409.0,104.34782608695652
135.262021,426409.0,112.49999999999999
135.370016,415705.5,92.3076923076923
135.404012,415705.5,100.0
135.532007,419587.5,0.0
135.561006,419587.5,100.0
135.676998,407918.5,0.0
135.710994,407918.5,0.0
135.830037,413943.0,100.0
135.861985,413943.0,100.0
135.982979,416609.0,0.0
136.016978,416609.0,0.0
136.121028,443581.0,0.0
136.158968,443581.0,0.0
136.282962,442090.5,0.0
136.314961,442090.5,0.0
136.424954,436103.5,0.0
136.454951,436103.5,0.0
136.584943,420244.0,0.0
136.628987,420244.0,100.0
136.728936,421523.0,109.0909090909091
136.762932,421523.0,109.0909090909091
136.876932,390894.5,0.0
136.917926,390894.5,0.0
137.035916,398579.5,0.0
137.072915,398579.5,0.0
137.179909,391300.5,0.0
137.219908,391300.5,0.0
137.3409,409164.0,0.0
137.380896,409164.0,0.0
137.482891,424490.0,0.0
137.525888,424490.0,0.0
137.613907,450679.5,92.3076923076923
137.64388,450679.5,0.0
137.785875,439369.0,0.0
137.81687,439369.0,0.0
137.930914,451344.0,0.0
137.95991,451344.0,0.0
138.094882,445970.5,0.0
138.143857,445970.5,0.0
138.237847,469877.5,0.0
138.277845,469877.5,0.0
138.380838,420723.5,0.0
138.413835,420723.5,0.0
138.534878,432597.5,0.0
138.563826,432597.5,0.0
138.685825,435871.5,0.0
138.724839,435871.5,0.0
138.845817,460887.0,0.0
138.885808,460887.0,0.0
138.989862,454649.5,0.0
139.025799,454649.5,0.0
139.131793,461641.5,0.0
139.165791,461641.5,0.0
139.293789,371036.5,0.0
139.33078,371036.5,0.0
139.437834,287289.0,0.0
139.487775,287289.0,0.0
139.600766,224295.0,0.0
139.639796,224295.0,0.0
139.740759,200627.5,75.0
139.788754,200627.5,0.0
139.882751,184447.5,75.0
139.923749,184447.5,0.0
140.041787,187848.5,0.0
140.077736,187848.5,75.0
140.188737,181216.0,75.0
140.235731,181216.0,75.0
140.349721,215309.5,0.0
140.393719,215309.5,0.0
140.481713,205529.0,0.0
140.520711,205529.0,0.0
140.624704,206679.5,0.0
140.658753,206679.5,0.0
140.800696,198650.5,0.0
140.841694,198650.5,0.0
140.929687,197904.0,0.0
140.964687,197904.0,0.0
141.102678,153082.5,0.0
141.141674,153082.5,0.0
141.244728,156056.0,75.0
141.290665,156056.0,0.0
141.391719,150059.5,0.0
141.43866,150059.5,0.0
141.543651,156856.0,0.0
141.579652,156856.0,0.0
141.694643,155033.5,0.0
141.740639,155033.5,0.0
141.857633,168279.5,0.0
141.894629,168279.5,0.0
141.99067,171226.0,0.0
142.031653,171226.0,0.0
142.141617,178591.5,0.0
142.180613,178591.5,0.0
142.300667,180698.5,0.0
142.340606,180698.5,0.0
142.445658,206176.5,0.0
142.493595,206176.5,0.0
142.604591,204727.0,0.0
142.641586,204727.0,0.0
142.75258,204765.5,0.0
142.793577,204765.5,0.0
142.883573,204474.0,0.0
142.91857,204474.0,104.34782608695652
143.059561,206889.0,0.0
143.092589,206889.0,0.0
143.19856,170518.5,0.0
143.250552,170518.5,116.12903225806453
143.355602,171569.0,0.0
143.386542,171569.0,0.0
143.505594,174075.5,0.0
143.538533,174075.5,0.0
143.632527,173945.5,0.0
143.660525,173945.5,0.0
143.791517,174506.5,0.0
143.819516,174506.5,0.0
143.947534,183581.0,0.0
143.981509,183581.0,0.0
144.084504,191801.0,0.0
144.116499,191801.0,0.0
144.248498,193112.5,0.0
144.284489,193112.5,116.12903225806453
144.395484,193313.5,90.0
144.430505,193313.5,90.0
144.554473,193315.0,90.0
144.583473,193315.0,90.0
144.699466,194750.5,75.0
144.734465,194750.5,75.0
144.841463,197972.5,90.0
144.881454,197972.5,75.0
145.005452,207701.0,75.0
145.045446,207701.0,75.0
145.14044,218072.5,75.0
145.177438,218072.5,75.0
145.304431,226927.5,75.0
145.338427,226927.5,75.0
145.456426,234374.5,0.0
145.497421,234374.5,75.0
145.585414,231666.5,75.0
145.62041,231666.5,75.0
145.759406,236441.5,0.0
145.800399,236441.5,100.0
145.888395,230374.5,100.0
145.923441,230374.5,100.0
146.060384,231398.5,100.0
146.092383,231398.5,0.0
146.205378,231560.5,0.0
146.244373,231560.5,0.0
146.338398,231414.0,0.0
146.373368,231414.0,0.0
146.510359,229351.0,0.0
146.548355,229351.0,0.0
146.658349,221845.0,0.0
146.693346,221845.0,0.0
146.811343,189752.0,0.0
146.854339,189752.0,0.0
146.954332,176231.0,0.0
146.992329,176231.0,0.0
147.091324,172650.5,0.0
147.124322,172650.5,0.0
147.261316,172576.5,0.0
147.311313,172576.5,0.0
147.405307,170418.0,0.0
147.442347,170418.0,0.0
147.563343,170320.0,0.0
147.604296,170320.0,0.0
147.708294,172787.5,0.0
147.741285,172787.5,0.0
147.849281,172854.0,0.0
147.878277,172854.0,0.0
148.008271,186774.0,0.0
148.042308,186774.0,0.0
148.157267,230348.5,0.0
148.191262,230348.5,0.0
148.319313,229577.5,0.0
148.367248,229577.5,0.0
148.463302,163522.0,0.0
148.516273,163522.0,0.0
148.596235,141398.0,0.0
148.632233,141398.0,0.0
148.754226,165515.0,0.0
148.803279,165515.0,0.0
148.900223,226715.0,0.0
148.942264,226715.0,0.0
149.067207,252355.0,0.0
149.106205,252355.0,0.0
149.212199,265851.5,0.0
149.250196,265851.5,0.0
149.36019,278527.0,0.0
149.393187,278527.0,112.49999999999999
149.512183,299970.5,112.49999999999999
149.560182,299970.5,75.0
149.661231,303282.0,75.0
149.710171,303282.0,0.0
149.824165,309037.5,0.0
149.87516,309037.5,0.0
149.961155,303718.5,0.0
149.995152,303718.5,75.0
150.110146,327456.5,0.0
150.150144,327456.5,0.0
150.269138,331832.0,109.0909090909091
150.323135,331832.0,0.0
150.401158,350032.0,0.0
150.439129,350032.0,0.0
150.566121,342990.5,0.0
150.600116,342990.5,0.0
150.713112,370000.5,0.0
150.755107,370000.5,0.0
150.860149,371306.5,0.0
150.8941,371306.5,100.0
151.017152,410424.0,100.0
151.05609,410424.0,0.0
151.162083,412053.0,100.0
151.193133,412053.0,109.0909090909091
151.324081,454297.5,109.0909090909091
151.362071,454297.5,105.88235294117648
151.469067,454811.5,105.88235294117648
151.511097,454811.5,115.38461538461539
151.60306,493891.5,115.38461538461539
151.636057,493891.5,110.52631578947367
151.766098,483983.0,109.0909090909091
151.797046,483983.0,94.73684210526315
151.911084,536059.0,94.73684210526315
151.941037,536059.0,104.34782608695652
152.069078,531961.0,112.49999999999999
152.102028,531961.0,112.49999999999999
152.217028,593299.0,112.49999999999999
152.262022,593299.0,0.0
152.368014,587394.5,0.0
152.414012,587394.5,0.0
152.528009,655067.5,0.0
152.575001,655067.5,0.0
152.654027,647025.0,112.49999999999999
152.680994,647025.0,112.49999999999999
152.827987,709075.0,0.0
152.862015,709075.0,0.0
152.968983,707369.0,0.0
153.004975,707369.0,0.0
153.107969,716237.5,0.0
153.140967,716237.5,0.0
153.27502,709686.0,0.0
153.308957,709686.0,0.0
153.421952,727844.5,0.0
153.458948,727844.5,0.0
153.583943,723193.5,0.0
153.616939,723193.5,112.49999999999999
153.719939,725904.0,0.0
153.75793,725904.0,0.0
153.866924,720700.0,112.49999999999999
153.897972,720700.0,0.0
154.023975,717983.5,0.0
154.055913,717983.5,0.0
154.168913,719026.0,0.0
154.204937,719026.0,0.0
154.327903,719672.5,0.0
154.358895,719672.5,0.0
154.47189,715698.5,0.0
154.504886,715698.5,0.0
154.612928,716084.0,0.0
154.641881,716084.0,0.0
154.775872,713424.0,0.0
154.807868,713424.0,0.0
154.919923,714666.5,112.49999999999999
154.95686,714666.5,112.49999999999999
155.064855,714396.0,112.49999999999999
155.104851,714396.0,112.49999999999999
155.21785,716434.0,0.0
155.258849,716434.0,0.0
155.363837,716697.0,0.0
155.401834,716697.0,0.0
155.523834,713863.0,0.0
155.565824,713863.0,0.0
155.671878,714777.0,112.49999999999999
155.706815,714777.0,112.49999999999999
155.815868,714491.5,112.49999999999999
155.847812,714491.5,0.0
155.970801,715167.0,0.0
156.050796,715167.0,0.0
156.109794,714755.5,0.0
156.133789,714755.5,0.0
156.284784,715742.0,0.0
156.324782,715742.0,0.0
156.427775,717272.0,0.0
156.467771,717272.0,0.0
156.574829,720056.5,0.0
156.608762,720056.5,0.0
156.728762,719539.5,0.0
156.764753,719539.5,0.0
156.880748,721638.0,0.0
156.926748,721638.0,0.0
157.039783,725796.0,0.0
157.079735,725796.0,0.0
157.16973,736787.0,75.0
157.206727,736787.0,57.142857142857146
157.328727,760637.5,0.0
157.377719,760637.5,0.0
157.481713,765660.5,0.0
157.513709,765660.5,0.0
157.615703,721705.0,0.0
157.640701,721705.0,0.0
157.790693,677465.5,0.0
157.81969,677465.5,0.0
157.923694,681640.0,0.0
157.95669,681640.0,0.0
158.071679,692280.5,0.0
158.107683,692280.5,0.0
158.227669,491117.0,0.0
158.262666,491117.0,0.0
158.37066,500312.5,0.0
158.407656,500312.5,0.0
158.530652,334508.0,0.0
158.568646,334508.0,0.0
158.674643,348294.0,0.0
158.708677,348294.0,0.0
158.819635,383067.0,0.0
158.855662,383067.0,0.0
158.963625,252044.0,0.0
159.004622,251461.5,0.0
159.108616,295231.5,0.0
159.144613,295231.5,0.0
159.196616,204823.0,0.0
159.222607,205085.0,0.0
159.278607,245035.0,100.0
159.306658,245035.0,100.0
159.341603,220382.0,100.0
159.405597,245293.0,100.0
159.431598,245293.0,0.0
159.469635,261591.0,0.0
159.494592,261591.0,0.0
159.52259,282718.0,0.0
159.568591,286914.0,0.0
159.639586,287718.0,0.0
159.671582,287718.0,0.0
159.698579,270621.0,0.0
159.726578,253824.0,0.0
159.773576,244815.0,0.0
159.832572,234569.5,0.0
159.869569,245230.0,100.0
159.925567,266341.5,100.0
159.964564,242074.5,100.0
159.996614,239438.5,100.0
160.04556,247491.0,100.0
160.07956,252845.5,100.0
160.110606,252845.5,109.0909090909091
160.142605,265989.0,0.0
160.172552,305379.0,100.0
160.20655,316478.5,0.0
160.240571,325959.5,0.0
160.275545,325959.5,0.0
160.323542,339180.0,0.0
160.35554,339180.0,0.0
160.383538,342319.0,0.0
160.412538,344275.0,0.0
160.445536,347719.0,0.0
160.478534,350304.5,0.0
160.509531,350304.5,0.0
160.54153,355312.0,0.0
160.57253,357472.0,0.0
160.607526,359093.0,0.0
160.641524,365003.0,0.0
160.671524,365003.0,92.3076923076923
160.71852,390981.5,92.3076923076923
160.754519,390981.5,0.0
160.795515,409845.0,0.0
160.838513,430056.5,0.0
160.87651,451675.0,0.0
160.923508,472707.5,0.0
160.959506,491232.0,0.0
160.994503,499356.0,0.0
161.032502,508845.5,0.0
161.072501,518272.0,66.66666666666667
161.142497,532397.0,0.0
161.179493,538199.0,0.0
161.22049,546198.5,0.0
161.26349,552484.5,0.0
161.300488,550773.5,0.0
161.338484,557466.5,0.0
161.378482,563818.0,0.0
161.417479,566732.5,0.0
161.461476,564099.0,0.0
161.494474,564099.0,0.0
161.533472,553761.0,0.0
161.56547,553761.0,0.0
161.595469,540812.5,0.0
161.621467,516134.0,0.0
161.648465,481197.5,0.0
161.689463,432631.5,0.0
161.71846,432631.5,0.0
161.745459,363162.0,0.0
161.773458,274458.0,0.0
161.802455,180811.0,0.0
161.829454,180811.0,0.0
161.858453,123632.0,0.0
161.885451,105919.5,0.0
161.930449,101852.5,0.0
161.963457,96322.0,0.0
162.011446,127134.5,0.0
162.046441,283499.5,0.0
162.07244,283499.5,0.0
162.100438,654858.0,0.0
162.130439,1139625.0,0.0
162.171434,1488335.0,0.0
162.205432,1720386.0,0.0
162.235431,1720386.0,0.0
162.261429,1777240.0,0.0
162.299435,1780910.0,0.0
162.331424,1773677.0,0.0
162.364423,1764974.5,0.0
162.395421,1765068.5,0.0
162.427467,1754094.0,0.0
162.458417,1753958.0,0.0
162.492415,1743488.0,0.0
162.523415,1744049.5,0.0
162.551412,1732987.5,0.0
162.579435,1733373.0,0.0
162.608428,1723612.0,0.0
162.674412,1726118.5,0.0
162.713404,1720953.0,0.0
162.740407,1720706.0,0.0
162.772398,1721314.0,0.0
162.801418,1721147.5,0.0
162.830422,1718897.5,0.0
162.856394,1718790.5,0.0
162.906391,1718447.5,0.0
162.939389,1718772.0,0.0
162.971387,1718264.0,0.0
163.004385,1718527.5,0.0
163.031432,1718426.0,0.0
163.060383,1718714.0,0.0
163.08738,1709546.5,0.0
163.147396,1709700.5,0.0
163.180383,1709642.5,0.0
163.211373,1709767.5,0.0
163.236374,1709242.5,0.0
163.263379,1709756.5,0.0
163.291369,1709342.5,0.0
163.325367,1709592.5,0.0
163.355404,1709885.0,0.0
163.388368,1709348.5,0.0
163.419366,1709633.5,0.0
163.453365,1709710.0,0.0
163.499358,1709805.5,0.0
163.532354,1710028.5,0.0
163.564353,1709582.5,0.0
163.599351,1709535.5,0.0
163.626348,1709606.0,0.0
163.660346,1709533.0,0.0
163.704344,1709176.0,0.0
163.751341,1708951.5,0.0
163.790339,1709608.0,0.0
163.833335,1709404.0,0.0
163.867334,1710025.5,0.0
163.901365,1709302.5,0.0
163.93433,1709591.5,0.0
163.965328,1709151.0,0.0
163.991327,1709701.5,0.0
164.020325,1709419.5,0.0
164.078325,1709600.5,0.0
164.110322,1709414.5,0.0
164.142318,1709470.0,0.0
164.177319,1709334.0,75.0
164.218314,1709359.0,0.0
164.252313,1709144.5,0.0
164.28431,1709558.5,100.0
164.319308,1709860.5,115.38461538461539
164.352306,1709402.0,0.0
164.384304,1709523.0,75.0
164.4243,1709385.5,0.0
164.454298,1709517.0,77.41935483870968
164.485328,1709620.0,0.0
164.519296,1708881.5,0.0
164.555294,1709418.0,0.0
164.585292,1709454.0,0.0
164.616291,1709392.5,0.0
164.646288,1709729.0,0.0
164.675289,1709083.5,78.26086956521739
164.708316,1709137.0,0.0
164.739283,1709649.0,75.0
164.772281,1709258.0,0.0
164.806279,1710339.0,0.0
164.838279,1709641.5,0.0
164.870325,1709772.5,0.0
164.902274,1709499.0,0.0
164.937273,1709240.0,0.0
164.967321,1709590.5,0.0
164.996317,1709902.5,0.0
165.042315,1709841.5,0.0
165.082262,1709911.5,0.0
165.116263,1710027.5,0.0
165.147258,1709539.0,0.0
165.175308,1709906.5,0.0
165.205256,1709351.5,0.0
165.246253,1709673.5,0.0
165.280251,1709786.5,0.0
165.31128,1709415.0,0.0
165.344298,1709733.0,0.0
165.374245,1710134.5,0.0
165.404245,1709180.5,0.0
165.433242,1709450.5,0.0
165.46427,1709755.5,0.0
165.534282,1709835.0,0.0
165.570234,1709741.0,0.0
165.601232,1709508.5,0.0
165.632232,1709644.5,0.0
165.664228,1709218.0,112.49999999999999
165.696226,1709705.0,0.0
165.728225,1709326.0,0.0
165.760223,1709258.5,0.0
165.791221,1709572.5,0.0
165.824218,1709768.0,0.0
165.854219,1709483.5,0.0
165.903213,1709717.0,0.0
165.945212,1709734.0,0.0
165.97421,1709670.0,0.0
166.005209,1709889.0,0.0
166.035207,1709678.5,0.0
166.068205,1710155.0,116.66666666666666
166.101201,1709815.5,0.0
166.133201,1710028.5,0.0
166.163201,1709606.0,0.0
166.209196,1709701.5,114.28571428571429
166.242194,1710260.5,0.0
166.275192,1709760.5,0.0
166.30619,1710162.0,0.0
166.337189,1709671.5,0.0
166.367187,1710093.5,0.0
166.399185,1709550.0,0.0
166.448182,1709962.0,0.0
166.48018,1709994.5,0.0
166.513177,1709887.5,0.0
166.543175,1710153.5,0.0
166.577174,1709824.5,0.0
166.609173,1710164.5,0.0
166.642169,1709635.5,0.0
166.676168,1710174.5,0.0
166.720166,1710394.0,0.0
166.752164,1709771.5,0.0
166.786162,1709970.5,0.0
166.81716,1709689.0,0.0
166.849157,1709770.5,0.0
166.880156,1710035.0,0.0
166.911155,1709853.0,0.0
166.943153,1709725.0,0.0
166.979151,1709939.5,0.0
167.011151,1709648.5,0.0
167.042172,1709864.5,0.0
167.119145,1709601.0,0.0
167.149141,1710112.5,0.0
167.179141,1709538.0,0.0
167.208137,1709898.5,0.0
167.239184,1709533.0,0.0
167.270136,1710091.5,0.0
167.300183,1709582.5,0.0
167.32913,1709706.5,0.0
167.376126,1710089.5,0.0
167.408125,1710269.5,0.0
167.440124,1709957.5,0.0
167.472153,1709761.0,0.0
167.50312,1710106.0,0.0
167.535118,1710026.0,0.0
167.568116,1710145.0,0.0
167.616161,1709942.0,0.0
167.648114,1709486.5,0.0
167.680109,1709747.5,0.0
167.713157,1709181.0,0.0
167.744106,1709974.0,0.0
167.774104,1709635.0,0.0
167.808104,1710126.0,0.0
167.8391,1710529.0,0.0
167.870097,1709901.0,0.0
167.920095,1710148.0,0.0
167.954093,1710269.5,0.0
167.987091,1709928.5,0.0
168.01809,1709526.5,0.0
168.048087,1710481.5,0.0
168.081085,1709736.0,0.0
168.109083,1710677.0,0.0
168.139083,1709718.5,0.0
168.169081,1710232.0,0.0
168.199109,1709946.0,0.0
168.228077,1710020.0,0.0
168.257107,1709827.0,0.0
168.303073,1709961.0,0.0
168.336071,1710035.0,0.0
168.370092,1710235.5,0.0
168.405069,1709611.5,103.44827586206897
168.437065,1710108.0,0.0
168.469063,1710473.0,0.0
168.500061,1710136.5,105.88235294117648
168.54506,1709406.5,0.0
168.578057,1709798.5,0.0
168.610055,1709485.5,0.0
168.641053,1709611.0,0.0
168.67105,1709261.0,0.0
168.701048,1709690.5,0.0
168.729048,1709543.0,0.0
168.800044,1709301.0,0.0
168.83304,1709771.5,0.0
168.864039,1709753.0,0.0
168.894037,1709624.5,0.0
168.924036,1709581.0,0.0
168.955035,1709773.5,0.0
168.985034,1709194.0,0.0
169.015031,1709665.0,0.0
169.045029,1709005.5,0.0
169.077027,1709470.5,0.0
169.120025,1709486.0,0.0
169.148023,1709094.0,0.0
169.175021,1709547.0,85.71428571428571
169.207019,1708910.0,0.0
169.240047,1709542.0,0.0
169.270016,1709306.5,0.0
169.300045,1709134.5,0.0
169.328012,1709340.5,0.0
169.36101,1709443.0,0.0
169.393038,1709117.0,0.0
169.430006,1709276.0,0.0
169.463003,1709259.0,0.0
169.504002,1709177.5,0.0
169.536,1709201.0,0.0
169.568998,1709012.0,0.0
169.601996,1709737.0,0.0
169.631994,1708946.5,0.0
169.660993,1709445.5,0.0
169.690992,1708982.0,0.0
169.758989,1709434.5,0.0
169.790985,1709180.5,0.0
169.821982,1709149.5,0.0
169.859981,1709477.0,0.0
169.891979,1709591.5,0.0
169.927977,1709210.5,0.0
169.998975,1709309.0,0.0
170.02997,1709572.5,0.0
170.059969,1709158.5,0.0
170.091967,1709853.0,0.0
170.123966,1709487.5,0.0
170.159963,1709380.5,0.0
170.191961,1709160.5,0.0
170.226958,1709136.0,0.0
170.259957,1709428.0,0.0
170.302955,1709023.0,54.54545454545455
170.335953,1709456.5,0.0
170.366951,1709342.0,54.54545454545455
170.397949,1709437.0,54.54545454545455
170.429948,1709350.0,54.54545454545455
170.461945,1709453.5,54.54545454545455
170.493944,1709476.0,54.54545454545455
170.526942,1709247.0,54.54545454545455
170.55494,1709468.0,54.54545454545455
170.580938,1708997.5,54.54545454545455
170.613937,1709456.0,0.0
170.687932,1709241.0,0.0
170.720929,1709318.5,0.0
170.750959,1709566.0,0.0
170.780927,1709345.0,0.0
170.812925,1709665.5,0.0
170.842923,1709498.0,0.0
170.872921,1709224.5,0.0
170.911919,1709683.0,0.0
170.943917,1709199.0,0.0
170.975915,1709150.5,0.0
171.009913,1708965.0,0.0
171.040941,1709788.0,0.0
171.072911,1709291.0,0.0
171.10391,1709469.0,0.0
171.152905,1709641.0,0.0
171.184903,1709455.5,0.0
171.215901,1709532.5,0.0
171.248899,1709663.5,0.0
171.279896,1709317.5,0.0
171.309926,1709719.5,0.0
171.338894,1709344.5,0.0
171.368915,1709525.5,0.0
171.400892,1709446.5,0.0
171.430939,1709562.5,0.0
171.460887,1709506.0,0.0
171.503884,1709522.5,0.0
171.536882,1709428.0,0.0
171.570903,1709321.5,0.0
171.608879,1709214.5,0.0
171.640876,1709464.0,0.0
171.670874,1709568.0,0.0
171.702872,1709443.0,0.0
171.731869,1709654.5,0.0
171.764867,1709509.0,0.0
171.799867,1709581.5,0.0
171.843866,1709644.0,0.0
171.878893,1709135.0,0.0
171.909859,1709067.5,0.0
171.940859,1709191.0,0.0
171.970857,1709276.5,0.0
172.000854,1709299.5,0.0
172.031853,1613550.5,0.0
172.075851,775503.0,0.0
172.10689,1015424.0,0.0
172.140846,1507317.5,0.0
172.171845,1746289.5,0.0
172.203845,1737464.5,0.0
172.235842,1705708.5,0.0
172.267842,1654954.5,0.0
172.292862,1627376.0,0.0
172.320835,1620674.5,0.0
172.349834,1613432.0,0.0
172.417837,1652495.0,0.0
172.453853,1675529.0,0.0
172.481828,1698324.5,0.0
172.509825,1717727.5,0.0
172.536823,1734618.0,0.0
172.568821,1747995.5,0.0
172.598819,1757823.0,0.0
172.626818,1763227.0,0.0
172.654815,1765708.0,0.0
172.722814,1766915.0,0.0
172.75981,1766713.5,0.0
172.78681,1765954.5,0.0
172.818806,1765596.0,0.0
172.844806,1765037.5,0.0
172.872803,1765366.0,0.0
172.900823,1766319.0,0.0
172.928802,1766887.5,0.0
172.957799,1767350.5,0.0
172.988798,1767444.0,0.0
173.018795,1767577.0,0.0
173.048793,1761921.5,0.0
173.098791,1753820.0,0.0
173.132794,1753710.0,0.0
173.162786,1745913.0,0.0
173.196786,1746295.0,0.0
173.223782,1739057.0,0.0
173.251782,1739185.0,0.0
173.278786,1730142.5,0.0
173.307834,1730196.5,0.0
173.377776,1730059.0,0.0
173.411773,1730332.5,0.0
173.44177,1730270.5,0.0
173.470789,1730256.5,0.0
173.49477,1730146.5,0.0
173.522765,1730122.5,0.0
173.580763,1729312.0,0.0
173.61176,1728618.0,0.0
173.64476,1720576.5,0.0
173.675756,1664253.5,0.0
173.704757,1582106.5,0.0
173.733755,1454056.0,0.0
173.766751,1309799.5,0.0
173.795765,1127494.5,0.0
173.82475,976312.0,0.0
173.854771,814611.0,0.0
173.922744,564363.5,0.0
173.955741,482044.0,0.0
173.985741,404554.5,0.0
174.013736,330915.5,0.0
174.039737,291130.5,0.0
174.072732,278827.5,0.0
174.100733,252995.0,0.0
174.128729,239289.5,0.0
174.157728,227405.5,0.0
174.184726,220109.5,0.0
174.212762,208768.5,0.0
174.241723,207463.5,0.0
174.305721,189445.5,0.0
174.340716,182550.5,0.0
174.379714,178636.5,0.0
174.412715,167836.5,0.0
174.443713,167836.5,0.0
174.471709,157287.0,0.0
174.506708,150959.5,0.0
174.539705,147199.0,0.0
174.587702,146746.5,0.0
174.6147,146746.5,0.0
174.642702,146308.5,0.0
174.673697,139659.0,0.0
174.699748,139962.5,0.0
174.746693,139786.5,0.0
174.778691,139584.0,0.0
174.827702,140381.0,0.0
174.858687,140381.0,0.0
174.883684,139770.5,0.0
174.910686,140194.5,0.0
174.938681,139986.0,0.0
174.987679,139660.5,0.0
175.013692,139660.5,0.0
175.039677,139312.0,0.0
175.070675,139625.0,0.0
175.100672,140084.5,0.0
175.147669,139514.0,0.0
175.180668,140203.0,0.0
175.207714,140203.0,0.0
175.236664,138826.5,0.0
175.265711,139622.0,0.0
175.307665,139596.5,0.0
175.340659,139530.0,0.0
175.367691,139530.0,0.0
175.397681,139114.0,0.0
175.427652,139357.5,0.0
175.468653,139959.5,0.0
175.500648,139494.5,0.0
175.547646,139060.0,0.0
175.581685,139019.5,0.0
175.613642,139019.5,0.0
175.640643,139154.5,0.0
175.668641,139089.5,0.0
175.707637,146334.0,0.0
175.746634,146885.0,0.0
175.784685,146885.0,0.0
175.824628,147145.5,0.0
175.864627,148094.0,0.0
175.904626,148935.5,0.0
175.943623,142949.5,0.0
175.986621,144775.5,0.0
176.026617,145522.5,0.0
176.067616,146641.5,81.81818181818181
176.104613,146806.5,0.0
176.14061,154431.0,109.0909090909091
176.169609,154758.5,75.0
176.204609,154243.5,0.0
176.243605,154205.5,0.0
176.276603,154041.0,0.0
176.309601,145465.0,0.0
176.352599,145556.0,0.0
176.388597,146146.0,0.0
176.424596,146146.0,0.0
176.462591,145961.0,0.0
176.52159,145432.5,0.0
176.560586,153278.0,0.0
176.601587,154958.5,0.0
176.644581,157266.5,0.0
176.680579,159862.0,0.0
176.720576,155292.5,0.0
176.756574,158325.5,0.0
176.789571,161417.0,100.0
176.83157,163156.0,0.0
176.870568,164949.0,0.0
176.916565,172454.0,0.0
176.953563,173525.0,0.0
176.989561,174238.0,56.24999999999999
177.024558,174899.0,0.0
177.075556,177786.0,0.0
177.113553,173484.0,0.0
177.155552,178176.5,0.0
177.206548,186199.0,100.0
177.238548,198648.5,85.71428571428571
177.277545,214248.5,75.0
177.313544,237708.5,100.0
177.34254,253374.0,100.0
177.391537,267192.5,60.0
177.429535,276934.0,54.54545454545455
177.473533,277651.5,0.0
177.51553,260652.5,0.0
177.553527,237982.0,0.0
177.592525,207689.5,52.17391304347826
177.631523,176539.0,0.0
177.66552,154077.5,0.0
177.711518,148643.5,0.0
177.745516,144225.0,60.0
177.779514,144225.0,0.0
177.815512,143564.5,0.0
177.847512,145627.0,0.0
177.884508,148667.0,0.0
177.921506,147416.5,0.0
177.961504,156046.5,0.0
178.0005,173313.0,63.1578947368421
178.0335,202691.0,0.0
178.085496,255586.0,85.71428571428571
178.119494,343428.5,0.0
178.162492,443704.0,0.0
178.201489,520698.5,0.0
178.241487,580887.5,0.0
178.272486,626305.0,0.0
178.314483,659213.5,0.0
178.349483,675812.5,0.0
178.39648,670938.5,0.0
178.424482,670938.5,0.0
178.453476,689408.5,0.0
178.483473,716373.0,0.0
178.51149,753337.0,0.0
178.555468,791989.5,0.0
178.588466,791989.5,0.0
178.620467,824096.0,0.0
178.647463,831802.0,0.0
178.676461,842093.5,0.0
178.720459,833287.0,0.0
178.755459,805790.0,0.0
178.790506,805790.0,0.0
178.826452,741813.0,0.0
178.868451,624087.5,0.0
178.906448,454197.0,0.0
178.941447,258756.5,0.0
178.974445,162205.0,0.0
179.007443,128604.5,0.0
179.04744,142346.5,0.0
179.087438,134725.0,0.0
179.123435,135962.5,0.0
179.158433,133331.0,0.0
179.21743,138482.0,0.0
179.255427,131891.5,0.0
179.287425,133055.5,0.0
179.325422,134370.5,0.0
179.357421,139635.0,0.0
179.386418,139756.0,0.0
179.434416,146895.0,0.0
179.467448,143918.0,0.0
179.513444,142712.0,0.0
179.547413,142169.0,0.0
179.580409,142169.0,0.0
179.61141,142461.5,0.0
179.637404,142173.0,0.0
179.674402,142144.0,0.0
179.7084,144314.0,0.0
179.733438,144314.0,0.0
179.760397,146714.0,0.0
179.788396,146744.5,0.0
179.834393,147159.0,0.0
179.867391,147744.5,0.0
179.915388,149522.0,0.0
179.948385,150193.0,0.0
179.975385,150193.0,0.0
180.001383,154904.5,0.0
180.028386,157452.0,0.0
180.07539,161689.0,0.0
180.110378,170529.0,0.0
180.136376,170529.0,0.0
180.163373,182002.5,0.0
180.189374,194602.5,0.0
180.234369,203903.0,0.0
180.267368,201066.5,0.0
180.315367,198614.0,0.0
180.348415,191225.5,0.0
180.375361,191225.5,0.0
180.402366,181845.0,0.0
180.431365,173202.0,0.0
180.476356,165719.5,0.0
180.514353,161498.5,0.0
180.551352,161498.5,0.0
180.595348,158127.5,0.0
180.632346,155344.5,0.0
180.675344,154236.0,0.0
180.718342,152603.5,0.0
180.759339,145328.0,60.0
180.796336,142531.5,0.0
180.831334,141829.5,0.0
180.881332,140956.5,0.0
180.915329,141737.5,0.0
180.963327,142820.5,0.0
180.996324,142577.5,0.0
181.045325,142573.0,0.0
181.082319,142726.5,0.0
181.122317,142421.0,0.0
181.162314,141979.5,0.0
181.201312,141696.0,0.0
181.23531,140938.0,0.0
181.275308,140702.5,0.0
181.324305,140866.5,0.0
181.352304,140866.5,0.0
181.383302,140285.5,0.0
181.415343,140176.5,0.0
181.446298,139499.0,0.0
181.483298,140208.5,0.0
181.516296,140567.5,0.0
181.56533,140283.5,0.0
181.594289,140283.5,0.0
181.623288,140436.5,0.0
181.651319,140575.0,0.0
181.680284,141030.5,0.0
181.725282,141386.5,0.0
181.752331,141386.5,0.0
181.78128,141354.5,0.0
181.808322,141294.5,0.0
181.837311,140669.5,0.0
181.884274,141387.5,0.0
181.91727,142085.0,0.0
181.966267,141208.5,0.0
181.992308,141208.5,0.0
182.019264,142970.5,105.88235294117648
182.058262,141897.0,0.0
182.099261,142505.0,0.0
182.135259,143020.5,75.0
182.174255,142493.5,75.0
182.211253,142983.5,97.2972972972973
182.242251,143576.0,0.0
182.329248,142601.5,0.0
182.364244,142601.5,0.0
182.394241,144116.5,0.0
182.421239,143349.0,85.71428571428571
182.455238,143600.5,111.11111111111111
182.489238,143165.0,0.0
182.529234,143708.5,0.0
182.560232,143172.5,0.0
182.607261,144341.0,0.0
182.640228,142904.5,0.0
182.669269,142904.5,0.0
182.720223,142803.0,0.0
182.752221,142803.0,0.0
182.789271,142188.5,0.0
182.823217,142564.5,0.0
182.854215,142604.5,0.0
182.883215,142562.5,0.0
182.927245,142235.5,0.0
182.960211,142350.0,0.0
183.007254,142026.0,0.0
183.043205,142386.5,0.0
183.081206,142386.5,0.0
183.120199,142728.0,0.0
183.148258,142728.0,0.0
183.176196,142907.0,0.0
183.205194,142871.0,0.0
183.247192,142894.5,0.0
183.28019,142991.5,0.0
183.311188,142991.5,0.0
183.340186,142698.5,0.0
183.367183,141539.0,0.0
183.408184,141466.5,0.0
183.44018,140784.0,0.0
183.472178,140784.0,0.0
183.520176,141499.0,0.0
183.550174,141499.0,0.0
183.581174,141722.5,0.0
183.610169,142609.5,0.0
183.648168,141907.5,0.0
183.680166,142329.0,0.0
183.711164,142329.0,0.0
183.740164,142033.5,0.0
183.768161,142125.0,0.0
183.807159,142307.5,0.0
183.839156,142628.5,0.0
183.869155,142628.5,0.0
183.921152,141705.0,0.0
183.949184,141705.0,0.0
183.977149,142493.5,0.0
184.00717,142619.5,0.0
184.047147,143188.5,0.0
184.081192,142732.5,0.0
184.111141,142732.5,0.0
184.141139,143131.5,0.0
184.16916,143082.0,0.0
184.207135,142455.5,0.0
184.239133,143291.0,0.0
184.268166,143291.0,0.0
184.321128,142289.0,0.0
184.351158,142289.0,0.0
184.380126,142494.5,0.0
184.407123,142865.5,105.88235294117648
184.447121,143446.0,0.0
184.480119,143573.0,0.0
184.530147,143271.5,96.7741935483871
184.566146,143630.0,96.0
184.607114,143610.0,100.0
184.647109,143512.0,0.0
184.753104,143597.0,0.0
184.795101,143564.5,0.0
184.827099,143105.5,0.0
184.854097,143349.0,0.0
184.893095,143436.5,0.0
184.920093,143436.5,0.0
184.946091,143738.5,0.0
184.97509,143430.5,0.0
185.006087,142753.0,80.0
185.054085,143469.0,80.0
185.084115,143469.0,107.14285714285714
185.13508,143666.5,94.73684210526315
185.166111,143666.5,107.14285714285714
185.197101,143686.5,107.14285714285714
185.225075,143981.0,107.14285714285714
185.254076,144192.0,94.73684210526315
185.298112,143293.0,111.11111111111111
185.335069,144616.0,111.11111111111111
185.376096,144641.5,0.0
185.408064,144888.0,0.0
185.456064,145836.0,0.0
185.48706,146179.0,114.28571428571429
185.536057,146397.0,114.28571428571429
185.567055,147595.0,114.28571428571429
185.615052,147519.5,114.28571428571429
185.64805,147694.5,112.49999999999999
185.681047,147694.5,114.28571428571429
185.713046,146695.0,114.28571428571429
185.740045,147326.5,0.0
185.775043,147271.0,111.11111111111111
185.808041,147305.0,114.28571428571429
185.854038,148318.5,0.0
185.885036,149793.0,0.0
185.943035,151185.5,0.0
185.981031,153754.0,114.28571428571429
186.015029,155817.5,0.0
186.057026,158345.0,100.0
186.098024,160637.5,0.0
186.140021,162138.5,0.0
186.178019,163665.0,0.0
186.214017,164411.5,0.0
186.267016,165146.5,0.0
186.304012,164657.0,0.0
186.341009,162885.5,0.0
186.390007,161563.5,0.0
186.418004,161342.5,0.0
186.446003,161725.5,0.0
186.49,162714.5,0.0
186.522001,164085.5,0.0
186.571002,164635.5,0.0
186.605993,165331.5,0.0
186.632991,165331.5,0.0
186.66299,164427.5,0.0
186.687989,163487.5,0.0
186.731987,162106.0,0.0
186.761985,161531.0,0.0
186.810985,160749.5,0.0
186.84498,161713.0,0.0
186.872978,161713.0,0.0
186.902976,161283.0,0.0
186.930976,161579.0,0.0
186.971018,162590.0,0.0
187.003972,163376.5,0.0
187.03197,163376.5,0.0
187.058967,164727.0,0.0
187.086965,167342.0,0.0
187.130964,168553.5,0.0
187.16396,168313.5,0.0
187.210959,168888.5,0.0
187.244956,169834.5,0.0
187.271955,169834.5,0.0
187.304953,170338.5,66.66666666666667
187.34395,170548.5,66.66666666666667
187.379948,170739.0,66.66666666666667
187.416946,170516.0,66.66666666666667
187.451943,170760.5,0.0
187.482942,171539.5,0.0
187.531939,171830.0,51.42857142857142
187.563937,171204.0,0.0
187.612934,171029.0,0.0
187.642958,171769.0,0.0
187.674931,171769.0,0.0
187.70593,171987.0,0.0
187.736955,170562.5,0.0
187.773925,167050.0,0.0
187.806956,163844.5,66.66666666666667
187.847921,163844.5,66.66666666666667
187.883921,159881.5,0.0
187.918919,156883.0,0.0
187.953915,157625.5,66.66666666666667
187.987913,161348.0,100.0
188.024912,174796.0,100.0
188.06691,221693.5,100.0
188.109906,389349.5,0.0
188.148904,777881.0,0.0
188.188901,1218533.0,0.0
188.222898,1419514.0,0.0
188.254896,1755012.0,0.0
188.297893,1780861.0,0.0
188.331891,1780844.0,0.0
188.362893,1777596.5,0.0
188.394888,1777778.0,0.0
188.440892,1774789.0,0.0
188.468884,1767666.0,0.0
188.496887,1767045.5,0.0
188.52488,1756815.0,0.0
188.550881,1757031.5,0.0
188.602876,1745992.5,0.0
188.636874,1738241.5,0.0
188.666873,1738615.0,0.0
188.700869,1732152.5,0.0
188.726892,1732192.5,0.0
188.756866,1732184.5,0.0
188.783866,1731956.0,0.0
188.842884,1730851.0,0.0
188.875863,1724969.0,0.0
188.906859,1698972.0,0.0
188.941856,1638844.5,0.0
188.966855,1560508.5,0.0
188.993853,1465271.5,0.0
189.021851,1352246.5,0.0
189.052852,1267538.5,0.0
189.114847,1045564.0,0.0
189.146846,931357.0,0.0
189.173893,859127.5,0.0
189.200841,798611.5,0.0
189.227838,758377.0,0.0
189.260838,683488.5,0.0
189.292847,620435.5,0.0
189.322836,528141.5,0.0
189.354844,409983.5,0.0
189.38683,325777.0,0.0
189.411836,237571.5,0.0
189.438834,160490.0,0.0
189.498853,136143.5,0.0
189.531824,125382.0,0.0
189.58182,129164.5,0.0
189.611818,129164.5,0.0
189.636815,195875.0,0.0
189.677818,197248.5,0.0
189.701862,197248.5,0.0
189.739815,176662.5,0.0
189.802848,178516.0,0.0
189.82885,178516.0,0.0
189.867841,158721.0,0.0
189.894801,158721.0,0.0
189.970803,114489.0,0.0
190.012794,114489.0,0.0
190.06479,125322.0,0.0
190.094788,125322.0,0.0
190.138785,108182.0,0.0
190.166839,108182.0,0.0
190.24178,93313.5,0.0
190.283777,93313.5,0.0
190.353775,110610.0,0.0
190.39277,110610.0,0.0
190.461769,131370.5,0.0
190.495764,131370.5,0.0
190.578763,136023.5,0.0
190.621758,136023.5,0.0
190.667786,152547.5,0.0
190.693753,152547.5,0.0
190.786755,168289.0,0.0
190.828746,168289.0,0.0
190.894741,217781.0,0.0
190.927741,217781.0,0.0
191.011784,242914.0,0.0
191.052733,242914.0,0.0
191.116727,260164.0,0.0
191.148727,260164.0,75.0
191.244727,273948.5,85.71428571428571
191.294717,273948.5,88.88888888888889
191.344717,278167.0,92.3076923076923
191.375712,278167.0,78.26086956521739
191.465758,244148.5,78.26086956521739
191.499708,244148.5,80.0
191.576703,240097.0,80.0
191.620698,240097.0,80.0
191.662719,236134.5,80.0
191.689694,236134.5,80.0
191.789696,228830.5,85.71428571428571
191.836708,228830.5,100.0
191.888685,222374.0,100.0
191.918681,222374.0,0.0
192.011681,224884.0,0.0
192.043673,224884.0,0.0
192.117717,230582.0,0.0
192.147717,230582.0,0.0
192.236664,231526.0,0.0
192.27466,231526.0,0.0
192.348661,233678.0,0.0
192.380654,233678.0,0.0
192.460655,234643.5,88.88888888888889
192.499647,234643.5,94.73684210526315
192.562643,235280.5,80.0
192.594643,235280.5,80.0
192.656638,234770.0,100.0
192.689635,234770.0,80.0
192.778631,228617.0,75.0
192.825633,228617.0,75.0
192.881625,229414.0,75.0
192.914622,229414.0,75.0
192.990617,229109.5,75.0
193.020615,229109.5,75.0
193.099616,229331.0,0.0
193.128609,229331.0,0.0
193.218611,229778.0,0.0
193.260604,229778.0,0.0
193.330598,229055.0,0.0
193.373597,229055.0,0.0
193.443592,228077.5,0.0
193.480589,228077.5,0.0
193.549605,221822.0,0.0
193.583582,221822.0,0.0
193.649578,201302.5,0.0
193.686578,201302.5,85.71428571428571
193.759572,162105.5,85.71428571428571
193.79057,162105.5,0.0
193.875617,122667.0,0.0
193.912564,122667.0,0.0
193.98756,126516.0,0.0
194.024607,126516.0,0.0
194.094554,128626.5,0.0
194.118554,128626.5,0.0
194.215593,130374.0,0.0
194.248591,130374.0,0.0
194.32754,117217.0,0.0
194.364538,117217.0,0.0
194.430532,93406.0,0.0
194.454551,93406.0,0.0
194.547533,141326.0,0.0
194.598523,141326.0,0.0
194.678518,933467.5,0.0
194.719515,933467.5,0.0
194.748513,1652237.0,0.0
194.778512,1652237.0,0.0
194.866508,1767916.5,0.0
194.901505,1767916.5,0.0
194.938502,1779456.0,0.0
194.965504,1779456.0,0.0
195.0065,1779785.5,0.0
195.033496,1779785.5,0.0
195.061497,1780893.0,0.0
195.115525,1776621.0,0.0
195.147501,1776874.0,0.0
195.180488,1775555.0,0.0
195.21149,1769787.0,0.0
195.237484,1769705.5,0.0
195.264534,1760907.0,0.0
195.292482,1760864.5,0.0
195.32448,1751031.0,0.0
195.355478,1751214.0,0.0
195.387476,1742713.0,0.0
195.419475,1742747.5,0.0
195.452472,1734964.5,0.0
195.499469,1727246.0,0.0
195.531498,1726660.0,0.0
195.56449,1726108.5,0.0
195.597463,1726145.5,0.0
195.627463,1726169.0,0.0
195.65846,1725961.0,0.0
195.69246,1726252.0,0.0
195.717458,1726759.0,0.0
195.744456,1726557.0,0.0
195.772453,1726725.0,0.0
195.833454,1726659.0,0.0
195.867464,1726289.5,0.0
195.899446,1726092.0,0.0
195.931445,1725950.5,0.0
195.956447,1726008.0,0.0
195.984442,1725848.0,0.0
196.01044,1726346.5,0.0
196.075436,1726328.0,0.0
196.107433,1726210.0,0.0
196.140432,1725936.5,0.0
196.17143,1721924.5,0.0
196.197459,1708499.5,0.0
196.224433,1678278.5,0.0
196.251468,1623871.0,0.0
196.314421,1416401.0,0.0
196.347419,1280091.0,0.0
196.379446,1121676.5,0.0
196.406418,1005642.5,0.0
196.436417,875481.0,0.0
196.467412,771689.0,0.0
196.497413,658167.0,0.0
196.524411,558131.0,0.0
196.555452,445333.0,0.0
196.589406,351334.0,0.0
196.619403,245089.5,0.0
196.648401,167132.0,0.0
196.698399,88973.0,0.0
196.731434,82670.5,0.0
196.762395,104097.5,0.0
196.796394,105437.0,0.0
196.82739,98762.0,0.0
196.861392,102039.5,0.0
196.907386,122181.5,0.0
196.940391,123228.0,0.0
196.967435,123228.0,0.0
196.996382,108255.5,0.0
197.035379,115952.5,0.0
197.082376,134737.5,0.0
197.130373,139928.5,0.0
197.156373,139928.5,0.0
197.18737,152943.5,0.0
197.227367,150304.5,0.0
197.298366,132829.5,0.0
197.342362,132829.5,0.0
197.377363,142095.5,0.0
197.406362,153279.5,0.0
197.467355,170197.0,0.0
197.492397,170197.0,0.0
197.530349,184172.5,0.0
197.556349,184172.5,0.0
197.587347,203116.0,0.0
197.650345,220662.0,0.0
197.68539,220662.0,0.0
197.717344,222951.0,0.0
197.771343,224213.5,0.0
197.797334,224213.5,0.0
197.824332,215664.0,0.0
197.883336,206559.0,0.0
197.910381,206559.0,0.0
197.948327,191655.5,0.0
198.019323,175165.5,0.0
198.06232,156195.0,0.0
198.131321,156746.5,0.0
198.169313,156746.5,0.0
198.202309,148191.5,0.0
198.257309,154790.5,0.0
198.293308,154790.5,0.0
198.329303,150875.0,0.0
198.3713,139515.0,0.0
198.4063,139515.0,0.0
198.449295,143779.0,62.06896551724138
198.486293,143779.0,0.0
198.52829,177485.5,0.0
198.563288,177485.5,0.0
198.608286,180016.5,0.0
198.635284,180016.5,100.0
198.685282,166513.0,90.0
198.71328,166513.0,90.0
198.811279,186090.5,0.0
198.861271,186090.5,0.0
198.894269,209251.0,72.0
198.924266,209251.0,0.0
199.005269,229351.0,0.0
199.047262,229351.0,0.0
199.091258,252839.5,0.0
199.124256,252839.5,0.0
199.201251,270161.5,0.0
199.240251,270161.5,100.0
199.297247,291098.5,100.0
199.332246,291098.5,0.0
199.392242,289757.0,109.0909090909091
199.426238,289757.0,0.0
199.486234,250794.5,0.0
199.511263,250794.5,0.0
199.61125,246933.0,0.0
199.679223,246933.0,0.0
199.706221,244611.0,0.0
199.800218,243303.0,0.0
199.836214,243303.0,0.0
199.886211,244966.5,0.0
199.912209,244966.5,0.0
200.007206,253981.0,0.0
200.046201,253981.0,0.0
200.095198,265402.0,0.0
200.123196,265402.0,0.0
200.204194,275557.0,0.0
200.23619,275557.0,0.0
200.287187,287097.5,0.0
200.315185,287097.5,0.0
200.413182,298368.5,0.0
200.448178,298368.5,0.0
200.499175,308158.5,0.0
200.535173,308158.5,0.0
200.598169,348464.5,0.0
200.632166,348464.5,0.0
200.706164,362037.0,0.0
200.744161,362037.0,0.0
200.800157,408238.0,0.0
200.833206,408238.0,0.0
200.898151,460380.0,0.0
200.933149,460380.0,0.0
200.996184,549133.0,0.0
201.028146,549133.0,75.0
201.10314,696418.5,75.0
201.140162,696418.5,75.0
201.214133,814608.0,75.0
201.250133,814608.0,0.0
201.287129,923318.0,0.0
201.361126,988188.0,0.0
201.396121,988188.0,0.0
201.443119,1035379.0,0.0
201.481117,1035379.0,0.0
201.522116,1074554.5,0.0
201.559113,1074554.5,0.0
201.609109,1109354.0,0.0
201.64711,1109354.0,0.0
201.681106,1101339.5,0.0
201.745102,1023139.5,0.0
201.783099,1023139.5,0.0
201.819097,890882.0,0.0
201.875094,698604.0,0.0
201.907091,698604.0,0.0
201.93709,446965.0,0.0
202.006088,242378.5,0.0
202.036083,242378.5,0.0
202.068083,181079.5,0.0
202.127079,158733.5,112.49999999999999
202.159077,158733.5,112.49999999999999
202.184074,140970.0,112.49999999999999
202.247076,114007.0,112.49999999999999
202.325069,100545.5,112.49999999999999
202.361065,100545.5,112.49999999999999
202.399064,102818.0,112.49999999999999
202.426061,102818.0,112.49999999999999
202.477058,95530.0,112.49999999999999
202.504086,95530.0,112.49999999999999
202.567055,80398.0,112.49999999999999
202.60605,80398.0,112.49999999999999
202.65405,89992.0,112.49999999999999
202.679046,89992.0,112.49999999999999
202.775042,103618.5,112.49999999999999
202.807039,103618.5,112.49999999999999
202.876036,117025.0,112.49999999999999
202.909033,117025.0,0.0
202.95803,162765.0,112.49999999999999
202.987028,162765.0,0.0
203.068025,163810.0,0.0
203.108021,163810.0,0.0
203.179019,169769.5,0.0
203.211015,169769.5,0.0
203.263012,165863.0,0.0
203.28901,165863.0,0.0
203.368007,156630.5,0.0
203.404003,156630.5,0.0
203.455,108251.5,0.0
203.479999,108251.5,0.0
203.570996,99902.5,0.0
203.620994,99902.5,0.0
203.673021,95662.5,0.0
203.707987,95662.5,0.0
203.763983,95724.5,0.0
203.79698,95724.5,0.0
203.872976,97074.0,0.0
203.903976,97074.0,0.0
203.963971,105543.5,0.0
203.995969,105543.5,0.0
204.059974,107882.0,0.0
204.096988,107882.0,0.0
204.161961,110434.5,0.0
204.194957,110434.5,85.71428571428571
204.280954,112466.5,109.0909090909091
204.31695,112466.5,0.0
204.367946,114502.5,0.0
204.396945,114502.5,0.0
204.477942,107596.0,0.0
204.523939,107596.0,0.0
204.562935,107813.0,0.0
204.600933,107813.0,0.0
204.672929,105994.0,0.0
204.703927,105994.0,0.0
204.781924,105436.5,0.0
204.82292,105436.5,0.0
204.862917,108233.5,0.0
204.888916,108233.5,0.0
204.975912,110168.5,0.0
205.014908,110168.5,0.0
205.091906,121070.0,0.0
205.122901,121070.0,0.0
205.1989,140034.5,0.0
205.224896,140034.5,0.0
205.338891,146234.0,0.0
205.370887,146234.0,0.0
205.466884,145502.0,0.0
205.505879,145502.0,75.0
205.569877,133769.5,75.0
205.605876,133769.5,75.0
205.708884,124061.0,75.0
205.753868,124061.0,54.54545454545455
205.809862,119067.0,54.54545454545455
205.843891,119067.0,63.1578947368421
205.944854,128356.0,63.1578947368421
205.985851,128356.0,0.0
206.052848,135071.5,0.0
206.08985,135071.5,0.0
206.191841,144267.5,0.0
206.234841,144267.5,75.0
206.290833,150020.0,75.0
206.330831,150020.0,85.71428571428571
206.415826,155060.5,85.71428571428571
206.453824,155060.5,75.0
206.528819,153978.0,75.0
206.56582,153978.0,75.0
206.656814,147893.0,0.0
206.692812,147893.0,0.0
206.769806,138274.5,0.0
206.820803,138274.5,0.0
206.906798,130564.0,0.0
206.937795,130564.0,0.0
207.018808,124669.5,0.0
207.051788,124669.5,0.0
207.148785,107818.0,0.0
207.185831,107818.0,0.0
207.289823,112454.0,0.0
207.317773,112454.0,0.0
207.420773,139371.5,0.0
207.458764,139371.5,0.0
207.583758,138464.0,0.0
207.615755,138464.0,0.0
207.726755,139031.0,0.0
207.761749,139031.0,0.0
207.867741,132548.5,0.0
207.902741,132548.5,0.0
208.030733,125740.5,0.0
208.066729,125740.5,0.0
208.173748,87000.5,0.0
208.22372,87000.5,0.0
208.326764,89915.0,0.0
208.363711,89915.0,0.0
208.465707,95237.5,0.0
208.493706,95237.5,0.0
208.613696,98520.5,0.0
208.643694,98520.5,0.0
208.781693,101344.0,0.0
208.827686,101344.0,0.0
208.950677,109929.0,0.0
208.992673,109929.0,0.0
209.113668,116019.5,0.0
209.155665,116019.5,0.0
209.22166,126495.0,0.0
209.256659,126495.0,0.0
209.379653,128798.0,0.0
209.493646,128798.0,0.0
209.643636,129166.0,0.0
209.700632,128584.0,0.0
209.857624,127473.0,0.0
209.926621,127473.0,0.0
209.974616,126220.5,0.0
210.003613,126220.5,109.0909090909091
210.116607,126938.0,109.0909090909091
210.143606,126938.0,109.0909090909091
210.296597,128611.0,0.0
210.335594,128611.0,0.0
210.416622,129075.5,112.49999999999999
210.447588,129075.5,0.0
210.596579,128065.0,112.49999999999999
210.632577,128065.0,112.49999999999999
210.732572,127379.5,0.0
210.771569,127379.5,0.0
210.868564,126687.5,0.0
210.903562,126687.5,0.0
211.042555,127512.0,0.0
211.086551,127512.0,0.0
211.167548,129485.5,0.0
211.205544,129485.5,0.0
211.338537,131909.5,0.0
211.389536,131909.5,0.0
211.488527,132419.0,0.0
211.530525,132419.0,0.0
211.628519,133888.5,0.0
211.671516,133888.5,0.0
211.77551,134247.5,0.0
211.808509,134247.5,0.0
211.921504,133712.0,0.0
211.957499,133712.0,0.0
212.078495,132945.5,0.0
212.112493,132945.5,0.0
212.22749,132859.0,0.0
212.264484,132859.0,0.0
212.371478,132092.0,0.0
212.411473,132092.0,0.0
212.542468,123830.0,0.0
212.579463,123830.0,0.0
212.667463,116272.5,0.0
212.69451,116272.5,0.0
212.848474,114085.0,0.0
212.892444,114085.0,0.0
212.986438,113144.5,0.0
213.030436,113144.5,0.0
213.126431,114191.0,0.0
213.172428,114191.0,60.0
213.301429,114264.0,60.0
213.363416,114264.0,66.66666666666667
213.431412,116765.0,0.0
213.485409,116765.0,0.0
213.607404,119024.0,0.0
213.654401,119024.0,0.0
213.747394,122557.5,0.0
213.796391,122557.5,0.0
213.882389,124259.5,0.0
213.926384,124259.5,0.0
214.038377,124915.0,0.0
214.083416,124915.0,0.0
214.192368,122837.5,0.0
214.234365,122837.5,0.0
214.343359,121231.5,0.0
214.381358,121231.5,0.0
214.49635,119487.5,0.0
214.548346,119487.5,0.0
214.643341,118873.0,0.0
214.710339,118873.0,0.0
214.803331,121548.0,0.0
214.850329,121548.0,0.0
214.941324,125375.0,0.0
214.98332,125375.0,54.54545454545455
215.116314,130849.5,54.54545454545455
215.16931,130849.5,54.54545454545455
215.254305,136169.0,0.0
215.309302,136169.0,0.0
215.378297,134717.0,0.0
215.414297,134717.0,75.0
215.557288,138783.0,0.0
215.625282,138535.5,0.0
215.68328,142368.5,0.0
215.719277,142564.0,0.0
215.85127,145322.5,0.0
215.973262,145322.5,0.0
216.03126,149032.5,0.0
216.132256,160042.5,0.0
216.171251,160042.5,0.0
216.293244,164022.0,0.0
216.325242,164022.0,0.0
216.446236,167060.5,0.0
216.488232,167060.5,0.0
216.603226,168816.5,0.0
216.641223,168816.5,0.0
216.755264,170785.5,0.0
216.795216,170785.5,0.0
216.883211,171846.5,0.0
216.921206,171846.5,0.0
217.0432,172065.5,0.0
217.0802,172065.5,0.0
217.196191,172534.5,0.0
217.236189,172534.5,0.0
217.343185,174613.5,0.0
217.385179,174613.5,0.0
217.492174,176087.0,0.0
217.529194,176087.0,0.0
217.634164,177894.0,54.54545454545455
217.672162,177894.0,0.0
217.794155,179861.5,0.0
217.826154,179861.5,0.0
217.941147,180720.0,0.0
217.981194,180432.5,0.0
218.08514,181681.0,0.0
218.129136,181987.5,0.0
218.243128,183312.0,0.0
218.276127,183312.0,0.0
218.390121,185283.0,0.0
218.42912,185283.0,0.0
218.545112,186732.0,0.0
218.583109,186732.0,0.0
218.694106,188475.5,0.0
218.7371,188475.5,0.0
218.837096,188721.0,0.0
218.875091,188721.0,0.0
218.996085,186013.0,0.0
219.031082,185702.0,0.0
219.134076,182594.5,0.0
219.167075,182920.0,0.0
219.299067,179812.0,0.0
219.335065,179812.0,0.0
219.439058,177212.0,0.0
219.476057,177212.0,0.0
219.59705,175300.0,0.0
219.631067,175004.5,0.0
219.748042,172742.5,0.0
219.812037,172742.5,0.0
219.913032,171675.0,0.0
219.961027,171991.0,0.0
220.049024,172494.0,0.0
220.091021,172494.0,0.0
220.206014,174062.5,0.0
220.24801,174062.5,0.0
220.356005,176005.0,0.0
220.401036,176005.0,0.0
220.515996,177205.0,0.0
220.571992,177205.0,0.0
220.636986,178224.0,0.0
220.671984,177956.5,0.0
220.813979,179146.5,0.0
220.855979,179487.5,0.0
220.94297,181626.5,0.0
220.971968,181626.5,0.0
221.103965,182905.5,0.0
221.13799,182620.0,0.0
221.271955,182084.0,0.0
221.323947,182425.5,0.0
221.392943,179960.0,0.0
221.419941,179960.0,0.0
221.569933,176773.0,0.0
221.605931,176460.5,0.0
221.709925,173010.0,0.0
221.746973,173291.5,0.0
221.855917,171037.5,0.0
221.895917,170751.0,0.0
222.013908,169161.0,0.0
222.060906,169491.0,0.0
222.145899,169242.5,0.0
222.1779,169242.5,0.0
222.317894,172689.5,0.0
222.365889,172689.5,0.0
222.447879,176779.0,0.0
222.474902,176779.0,0.0
222.605873,180223.0,0.0
222.649871,180223.0,0.0
222.754862,181266.0,0.0
222.787862,181266.0,0.0
222.91286,183481.5,0.0
222.950851,183481.5,0.0
223.068845,184130.5,0.0
223.127842,184130.5,0.0
223.199837,185877.5,0.0
223.232835,185877.5,0.0
223.353834,186378.0,0.0
223.394825,185960.5,0.0
223.522817,186653.0,0.0
223.560846,187059.0,0.0
223.64781,186828.5,0.0
223.67484,186828.5,0.0
223.8208,186827.0,0.0
223.852798,186827.0,0.0
223.960793,185460.5,0.0
223.995792,185460.5,0.0
224.101783,185113.0,0.0
224.138783,184733.5,0.0
224.269826,184033.5,0.0
224.299772,184416.0,0.0
224.407767,183296.5,0.0
224.442763,182977.5,0.0
224.580756,182241.5,0.0
224.616785,182241.5,0.0
224.716799,180786.5,0.0
224.756745,180786.5,0.0
224.867739,180709.5,0.0
224.915737,181019.0,0.0
225.022729,182323.0,0.0
225.063727,182323.0,0.0
225.151721,181855.0,0.0
225.18572,181442.5,0.0
225.318715,182459.5,0.0
225.35271,182818.5,85.71428571428571
225.464709,182223.0,94.73684210526315
225.504701,181900.0,0.0
225.609695,181980.0,0.0
225.646693,182338.0,0.0
225.772685,185348.5,0.0
225.811683,185348.5,0.0
225.919676,186280.0,0.0
226.005671,186280.0,0.0
226.090666,185910.5,75.0
226.121664,185514.5,75.0
226.216661,185180.0,0.0
226.252656,185529.5,0.0
226.362651,185716.0,100.0
226.400698,185380.0,92.3076923076923
226.523641,184660.5,60.0
226.56467,185102.0,60.0
226.669633,185361.0,60.0
226.707629,184941.5,60.0
226.818623,185421.0,54.54545454545455
226.854622,185421.0,54.54545454545455
226.974621,185625.5,54.54545454545455
227.027642,185625.5,54.54545454545455
227.106606,185097.0,54.54545454545455
227.140604,185402.0,54.54545454545455
227.2766,186199.5,54.54545454545455
227.310596,185909.0,88.88888888888889
227.426587,185799.0,92.3076923076923
227.467585,185799.0,92.3076923076923
227.579579,185215.0,57.142857142857146
227.645606,185636.5,100.0
227.713602,183915.0,104.34782608695652
227.74757,183915.0,0.0
227.869608,183389.5,100.0
227.907558,183389.5,0.0
228.022553,183882.0,0.0
228.077549,183882.0,0.0
228.171546,185234.5,0.0
228.206541,185234.5,0.0
228.324535,185449.5,0.0
228.382531,185449.5,0.0
228.464525,187595.0,0.0
228.493524,187595.0,100.0
228.61352,188073.0,100.0
228.656516,187700.0,75.0
228.774511,188762.0,0.0
228.812507,189127.5,90.0
228.9305,189132.0,75.0
228.983497,189132.0,85.71428571428571
229.055491,187007.0,0.0
229.088491,187007.0,0.0
229.225526,183004.5,85.71428571428571
229.26248,182612.0,85.71428571428571
229.366506,179867.5,85.71428571428571
229.41247,180282.5,0.0
229.529464,178866.5,0.0
229.562461,178866.5,0.0
229.680458,179796.0,0.0
229.747452,179431.0,0.0
229.813447,180883.0,0.0
229.843444,181312.0,0.0
229.978437,180395.5,85.71428571428571
230.032436,180395.5,0.0
230.115429,180749.0,0.0
230.14843,180749.0,0.0
230.297423,181269.5,0.0
230.351415,181269.5,85.71428571428571
230.41941,184063.0,85.71428571428571
230.476408,183683.5,0.0
230.578402,184253.5,0.0
230.630402,184631.5,0.0
230.721395,185228.0,0.0
230.751392,185228.0,85.71428571428571
230.878389,184018.5,100.0
230.919382,183673.0,0.0
231.046376,181073.5,0.0
231.091371,181073.5,0.0
231.166367,180340.5,64.28571428571428
231.195367,180340.5,64.28571428571428
231.327358,180549.0,100.0
231.369355,180904.0,100.0
231.477348,181888.5,100.0
231.510347,181888.5,100.0
231.62334,180445.0,100.0
231.658337,180445.0,100.0
231.790349,177106.5,100.0
231.830328,177106.5,100.0
231.925323,175238.0,100.0
231.96432,175238.0,0.0
232.079313,176428.0,0.0
232.121311,176428.0,0.0
232.233307,175097.5,0.0
232.281301,175097.5,0.0
232.371298,176827.0,0.0
232.409293,176827.0,0.0
232.543288,177750.0,0.0
232.580284,177750.0,0.0
232.677278,179398.0,56.24999999999999
232.710276,179044.5,78.26086956521739
232.82927,183205.0,81.81818181818181
232.879266,183621.0,78.26086956521739
232.990259,177100.0,75.0
233.043256,177100.0,0.0
233.144251,178204.5,0.0
233.199247,178204.5,0.0
233.296241,179440.5,0.0
233.343238,179040.5,0.0
233.455233,177018.5,0.0
233.503229,177018.5,66.66666666666667
233.607224,175263.0,0.0
233.65622,175635.5,0.0
233.740215,174964.0,0.0
233.783213,174964.0,0.0
233.872207,176044.0,0.0
233.903206,176044.0,0.0
234.037201,178745.0,0.0
234.070194,179176.5,0.0
234.18019,180149.0,0.0
234.216187,180149.0,0.0
234.342181,180030.5,0.0
234.386178,180030.5,0.0
234.481172,178658.5,75.0
234.518169,178658.5,75.0
234.632166,178617.5,100.0
234.67516,178617.5,100.0
234.791177,181552.5,0.0
234.834151,181165.5,0.0
234.93315,185821.0,0.0
234.973142,186231.5,0.0
235.077136,189706.5,0.0
235.120134,189706.5,100.0
235.253157,191521.0,66.66666666666667
235.295134,191521.0,66.66666666666667
235.379119,190623.5,66.66666666666667
235.416117,190623.5,0.0
235.554109,189370.0,0.0
235.594106,189370.0,0.0
235.687104,188377.0,0.0
235.724101,188377.0,0.0
235.845096,189044.0,0.0
235.894088,189044.0,0.0
235.988083,189802.0,0.0
236.02408,189802.0,0.0
236.152073,189565.5,0.0
236.19007,189565.5,0.0
236.302064,187749.0,0.0
236.341088,187749.0,0.0
236.454055,188739.0,0.0
236.513052,188739.0,80.0
236.576048,187326.0,66.66666666666667
236.611046,187326.0,0.0
236.746042,185804.5,0.0
236.779036,185804.5,0.0
236.900029,185572.0,0.0
236.937029,185572.0,0.0
237.050025,185303.0,0.0
237.096018,184915.0,0.0
237.200012,185568.5,0.0
237.243009,185976.0,0.0
237.328006,186521.0,109.0909090909091
237.359002,186521.0,109.0909090909091
237.491994,186340.0,109.0909090909091
237.518992,186340.0,109.0909090909091
237.648987,186459.0,0.0
237.680008,186459.0,0.0
237.802976,186588.0,0.0
237.842974,186588.0,0.0
237.936968,185296.5,0.0
237.978008,185296.5,0.0
238.098964,185479.5,0.0
238.142957,185479.5,0.0
238.254951,186431.5,0.0
238.294946,186431.5,0.0
238.383943,186451.5,0.0
238.414939,186451.5,0.0
238.547939,187261.5,0.0
238.59393,187261.5,0.0
238.702922,186930.0,0.0
238.744922,186930.0,0.0
238.833914,187498.0,0.0
238.875913,187086.0,0.0
239.003905,186786.5,0.0
239.039903,187182.5,0.0
239.136897,186590.0,0.0
239.174897,186590.0,0.0
239.286888,185118.5,0.0
239.314889,185118.5,0.0
239.450924,182519.0,0.0
239.484918,182519.0,0.0
239.601922,179398.0,0.0
239.641898,179398.0,0.0
239.747863,177919.5,0.0
239.776859,177919.5,0.0
239.899852,174593.5,0.0
239.93785,174593.5,0.0
240.048848,168802.5,0.0
240.171836,168802.5,0.0
240.237834,166267.0,0.0
240.334826,165197.5,0.0
240.362825,165541.0,0.0
240.511819,164759.5,0.0
240.560814,164384.0,0.0
240.652809,161555.5,0.0
240.700806,161555.5,0.0
240.7868,160987.5,0.0
240.830796,161276.5,0.0
240.958791,161160.5,0.0
241.000791,161160.5,0.0
241.094783,160937.5,0.0
241.158778,160937.5,0.0
241.257773,161735.0,0.0
241.288769,161735.0,0.0
241.399764,164113.0,0.0
241.434762,164113.0,0.0
241.548757,165257.5,0.0
241.583753,165257.5,0.0
241.706746,166330.0,0.0
241.747744,166330.0,0.0
241.854738,167351.0,0.0
241.895734,167351.0,0.0
242.01573,170475.0,0.0
242.057724,170475.0,0.0
242.145722,173696.5,0.0
242.188718,173696.5,0.0
242.30371,177046.0,0.0
242.342708,177046.0,0.0
242.463703,175823.0,0.0
242.509698,175823.0,0.0
242.596693,162240.0,0.0
242.635691,162240.0,0.0
242.759684,142703.5,0.0
242.791681,142703.5,0.0
242.901676,129071.5,0.0
242.950674,129071.5,0.0
243.044669,126779.5,0.0
243.081665,126779.5,0.0
243.207658,124581.0,0.0
243.24967,124581.0,0.0
243.351651,122952.5,0.0
243.397653,122952.5,0.0
243.508641,119726.0,0.0
243.549644,119726.0,0.0
243.647632,120335.5,0.0
243.682653,120335.5,0.0
243.796625,122326.0,0.0
243.831621,122326.0,0.0
243.946615,122442.0,0.0
243.976614,122442.0,0.0
244.099605,129748.0,0.0
244.162601,129748.0,0.0
244.253595,141001.5,0.0
244.283593,141001.5,0.0
244.402591,153436.0,0.0
244.43662,153436.0,0.0
244.547581,150261.5,0.0
244.585576,150261.5,0.0
244.708569,142690.5,0.0
244.744568,142690.5,0.0
244.868561,144309.0,0.0
244.910557,144309.0,0.0
245.010552,156364.0,0.0
245.045548,156364.0,0.0
245.153543,165380.5,0.0
245.19054,165138.0,0.0
245.309534,139909.5,0.0
245.35053,139909.5,0.0
245.477525,129509.0,0.0
245.512521,129580.5,0.0
245.616517,132326.0,0.0
245.666514,132326.0,0.0
245.778512,133354.0,0.0
245.815505,133354.0,0.0
245.905498,136571.0,0.0
245.941521,136571.0,0.0
246.059489,148214.0,0.0
246.100487,148214.0,0.0
246.21048,148346.0,0.0
246.244478,148346.0,60.0
246.369473,144298.5,75.0
246.41747,144298.5,60.0
246.529464,137563.0,75.0
246.568458,137563.0,75.0
246.664453,134416.0,75.0
246.702451,134416.0,66.66666666666667
246.805445,132472.0,66.66666666666667
246.835445,132472.0,72.0
246.969441,130107.0,66.66666666666667
247.006433,130107.0,78.26086956521739
247.117433,129217.5,66.66666666666667
247.156424,129217.5,66.66666666666667
247.278419,128824.0,60.0
247.320419,128824.0,60.0
247.408409,129273.5,60.0
247.444407,129273.5,60.0
247.566407,129533.0,60.0
247.609398,129533.0,60.0
247.713391,130866.0,60.0
247.751439,130866.0,60.0
247.875383,130493.5,0.0
247.918379,130493.5,0.0
248.031373,131240.0,0.0
248.06937,131240.0,0.0
248.162367,130771.0,0.0
248.200364,130771.0,0.0
248.321357,131114.0,0.0
248.362352,131114.0,0.0
248.481347,132008.0,0.0
248.525343,132008.0,0.0
248.612338,132219.0,0.0
248.659336,132219.0,0.0
248.775331,132875.0,0.0
248.818328,132764.5,0.0
248.915321,133227.5,0.0
248.954318,133337.5,0.0
249.079314,133455.5,0.0
249.118309,133455.5,0.0
249.224302,133928.5,0.0
249.2653,133827.0,0.0
249.359294,134330.0,0.0
249.388293,134438.5,0.0
249.526286,134394.5,0.0
249.562282,134394.5,0.0
249.666326,134466.0,0.0
249.6943,134466.0,0.0
249.818268,134063.0,0.0
249.856267,134063.0,0.0
249.983258,135293.5,0.0
250.019257,135293.5,0.0
250.13025,135573.0,0.0
250.169248,135573.0,0.0
250.254241,135163.5,100.0
250.283239,135163.5,100.0
250.424232,131084.5,60.0
250.463232,131084.5,60.0
250.571223,124476.0,100.0
250.61122,124476.0,0.0
250.724213,116228.5,0.0
250.757212,116228.5,0.0
250.868208,138221.0,0.0
250.907202,138221.0,0.0
251.013199,154800.5,0.0
251.051194,154800.5,0.0
251.17619,151832.5,0.0
251.214185,151832.5,0.0
251.321184,181543.5,0.0
251.355195,181543.5,0.0
251.481169,211972.0,0.0
251.516167,211797.0,0.0
251.624163,263339.0,100.0
251.669159,263339.0,0.0
251.779154,270609.0,0.0
251.817149,270609.0,0.0
251.912146,286571.0,0.0
251.953144,286571.0,0.0
252.047138,257199.0,0.0
252.082167,257724.5,0.0
252.176127,245514.5,0.0
252.209126,245514.5,0.0
252.272122,214336.5,0.0
252.299121,214336.5,0.0
252.409121,207913.0,0.0
252.439113,207913.0,0.0
252.513156,162653.5,0.0
252.54411,162653.5,0.0
252.622149,209688.0,0.0
252.650102,209688.0,0.0
252.720097,234034.0,0.0
252.755096,234034.0,0.0
252.817093,246813.0,0.0
252.848089,246813.0,0.0
252.911085,240563.0,0.0
252.943083,240563.0,0.0
253.037085,255026.5,0.0
253.083075,255026.5,0.0
253.121072,247824.5,0.0
253.150069,247824.5,0.0
253.216069,244660.0,0.0
253.244068,244660.0,0.0
253.341063,243992.0,0.0
253.378061,243992.0,0.0
253.429054,246749.5,0.0
253.465055,246749.5,0.0
253.520051,243862.5,109.0909090909091
253.553049,243862.5,0.0
253.616077,241745.0,0.0
253.645041,241745.0,0.0
253.740036,245823.5,0.0
253.772034,245823.5,0.0
253.824031,247291.5,0.0
253.860029,247291.5,0.0
253.926026,245656.0,0.0
253.958023,245656.0,0.0
254.01802,243028.0,0.0
254.052017,243028.0,0.0
254.149014,239091.0,0.0
254.189009,239091.0,0.0
254.224007,252746.0,0.0
254.254005,252746.0,0.0
254.332003,240909.0,0.0
254.363002,240909.0,0.0
254.400998,224922.0,0.0
254.437995,224922.0,0.0
254.495991,229979.0,0.0
254.52399,229979.0,0.0
254.575989,242984.5,0.0
254.607987,242984.5,0.0
254.668983,229148.0,0.0
254.703978,229148.0,100.0
254.755976,205030.5,0.0
254.790974,205030.5,0.0
254.836973,198188.5,0.0
254.87097,198188.5,0.0
254.914967,191303.0,0.0
254.952964,191303.0,0.0
254.987963,173496.5,0.0
255.049961,157310.0,0.0
255.098957,157310.0,0.0
255.140954,152071.5,0.0
255.201952,148052.5,0.0
255.250948,148052.5,0.0
255.285947,145951.0,0.0
255.338942,147525.5,0.0
255.37994,147525.5,0.0
255.416939,180162.5,0.0
255.475934,181259.5,100.0
255.515932,181259.5,100.0
255.547929,178696.0,0.0
255.599927,174734.5,100.0
255.636924,174734.5,100.0
255.685922,172585.0,100.0
255.718923,172585.0,100.0
255.754917,169337.0,100.0
255.825913,170491.5,100.0
255.860912,170491.5,100.0
255.903909,179415.5,100.0
255.954905,187136.5,0.0
255.991904,187136.5,0.0
256.036906,193386.5,0.0
256.070899,193386.5,0.0
256.106896,199458.5,0.0
256.161893,201161.5,0.0
256.198891,201161.5,0.0
256.242889,202872.0,75.0
256.286886,202872.0,75.0
256.323885,211014.5,100.0
256.38588,210994.5,75.0
256.417878,210994.5,0.0
256.449876,210127.0,66.66666666666667
256.509874,209699.5,0.0
256.538871,209699.5,0.0
256.591889,216250.0,0.0
256.621866,216250.0,0.0
256.658865,215358.0,0.0
256.685862,215358.0,85.71428571428571
256.734859,215740.5,85.71428571428571
256.760858,215740.5,85.71428571428571
256.797856,215012.0,58.06451612903226
256.826877,215012.0,80.0
256.862852,214798.0,58.06451612903226
256.891883,214798.0,58.06451612903226
256.940849,208451.0,58.06451612903226
256.966846,208451.0,58.06451612903226
257.008844,208362.0,100.0
257.044843,208362.0,0.0
257.083839,208847.0,0.0
257.153834,208327.0,0.0
257.194832,208327.0,0.0
257.23383,208570.0,0.0
257.299826,214754.0,0.0
257.335825,214754.0,0.0
257.372821,213921.5,66.66666666666667
257.422819,213401.5,66.66666666666667
257.456817,213401.5,66.66666666666667
257.506814,213098.5,109.0909090909091
257.535812,213098.5,109.0909090909091
257.56481,213782.5,0.0
257.593835,213782.5,0.0
257.644856,206952.5,0.0
257.672804,206952.5,0.0
257.709804,207774.5,0.0
257.735803,207774.5,109.0909090909091
257.773798,207392.0,109.0909090909091
257.802799,207392.0,109.0909090909091
257.863795,207458.0,109.0909090909091
257.896791,207458.0,109.0909090909091
257.927789,207940.5,109.0909090909091
257.981788,215088.0,109.0909090909091
258.011784,215088.0,75.0
258.064783,214511.0,75.0
258.095782,214511.0,70.58823529411765
258.136777,214911.0,70.58823529411765
258.207775,213856.0,70.58823529411765
258.244771,213856.0,100.0
258.278771,214532.0,66.66666666666667
258.348781,208627.5,0.0
258.386765,208627.5,0.0
258.424764,207813.0,0.0
258.481781,208178.5,66.66666666666667
258.51076,208178.5,66.66666666666667
258.557801,208881.0,66.66666666666667
258.58475,208881.0,66.66666666666667
258.625749,208987.5,0.0
258.664751,208987.5,66.66666666666667
258.696766,216470.5,66.66666666666667
258.780741,217459.5,66.66666666666667
258.826735,217459.5,66.66666666666667
258.863734,217803.0,66.66666666666667
258.908731,217919.5,66.66666666666667
258.947729,217919.5,72.0
258.980727,218579.5,0.0
259.041723,211777.5,0.0
259.077722,211777.5,0.0
259.119719,212102.0,0.0
259.186714,212971.0,0.0
259.215713,212971.0,0.0
259.251711,212946.5,0.0
259.284709,212946.5,0.0
259.330709,213120.0,0.0
259.366704,213120.0,0.0
259.404702,219850.5,0.0
259.471698,221002.0,60.0
259.510696,221002.0,60.0
259.549693,223024.0,60.0
259.60369,222882.5,0.0
259.641688,222882.5,0.0
259.686686,223339.0,0.0
259.742683,223339.0,0.0
259.78868,216137.5,0.0
259.832678,214173.0,0.0
259.895673,209845.0,0.0
259.95367,193595.5,0.0
259.986692,193595.5,0.0
260.035667,160329.5,0.0
260.072662,160329.5,0.0
260.108661,147025.0,60.0
260.156657,135550.0,0.0
260.188657,135550.0,0.0
260.233653,127545.0,0.0
260.260653,127545.0,0.0
260.31565,138782.0,0.0
260.339649,138782.0,0.0
260.418644,158117.5,0.0
260.467641,158117.5,0.0
260.509636,163589.0,0.0
260.536636,163589.0,0.0
260.588631,160440.5,0.0
260.614655,160440.5,0.0
260.682626,155315.5,0.0
260.708628,155315.5,0.0
260.779621,149308.5,0.0
260.807619,149308.5,0.0
260.866616,133926.5,0.0
260.900615,133926.5,0.0
260.961632,127786.5,0.0
260.991612,127786.5,0.0
261.057605,124864.0,0.0
261.091601,124864.0,0.0
261.1366,128211.5,0.0
261.175601,128211.5,0.0
261.233594,126398.0,0.0
261.266593,126398.0,0.0
261.314589,132195.0,0.0
261.356588,132195.0,0.0
261.412584,132930.0,0.0
261.445582,132930.0,0.0
261.50158,132305.0,0.0
261.529601,132305.0,0.0
261.582576,132242.5,0.0
261.615571,132242.5,0.0
261.681569,132431.5,0.0
261.714617,132431.5,0.0
261.779561,133393.5,0.0
261.813561,133393.5,0.0
261.861557,133009.0,0.0
261.889556,133009.0,0.0
261.951552,133532.5,0.0
261.98955,133532.5,0.0
262.052547,134003.0,0.0
262.094543,134003.0,0.0
262.132541,133862.5,0.0
262.231538,133684.0,0.0
262.273533,133684.0,0.0
262.320529,132859.5,0.0
262.409527,134394.0,0.0
262.452522,134394.0,0.0
262.505519,135233.5,0.0
262.554516,135233.5,0.0
262.606513,135836.5,0.0
262.685509,136334.5,0.0
262.730511,136334.5,0.0
262.779505,136721.0,0.0
262.8215,136721.0,0.0
262.869498,136747.0,0.0
262.956496,137622.5,0.0
263.00949,137622.5,0.0
263.056487,137775.5,54.54545454545455
263.122483,138274.5,0.0
263.214478,138274.5,0.0
263.278475,138807.5,0.0
